Mar. 17, 2023   21:13:15
Cyclic Voltammetry
File: f:\ch3cooh\20230317\0.05mm-pt-cv-1.csv
Data Source:  Experiment
Instrument Model:  CHI760E
Header: 
Note: 

Init E (V) = 0
High E (V) = 0.8
Low E (V) = 0
Init P/N = P
Scan Rate (V/s) = 0.1
Segment = 4
Sample Interval (V) = 0.001
Quiet Time (sec) = 2
Sensitivity (A/V) = 1e-5

Results:

Channel 1:
Segment 1:

Segment 2:

Segment 3:

Segment 4:

Potential/V, Current/A

0.000, -4.704e-7
0.001, -3.794e-7
0.002, -3.416e-7
0.003, -3.176e-7
0.004, -2.979e-7
0.005, -2.806e-7
0.006, -2.643e-7
0.007, -2.489e-7
0.008, -2.349e-7
0.009, -2.210e-7
0.010, -2.083e-7
0.011, -1.961e-7
0.012, -1.826e-7
0.013, -1.720e-7
0.014, -1.602e-7
0.015, -1.490e-7
0.016, -1.388e-7
0.017, -1.278e-7
0.018, -1.181e-7
0.019, -1.080e-7
0.020, -9.790e-8
0.021, -8.970e-8
0.022, -7.942e-8
0.023, -7.090e-8
0.024, -6.198e-8
0.025, -5.253e-8
0.026, -4.379e-8
0.027, -3.475e-8
0.028, -2.590e-8
0.029, -1.932e-8
0.030, -1.098e-8
0.031, -3.947e-9
0.032, 3.436e-9
0.033, 1.062e-8
0.034, 1.744e-8
0.035, 2.431e-8
0.036, 3.128e-8
0.037, 3.764e-8
0.038, 4.413e-8
0.039, 5.043e-8
0.040, 5.669e-8
0.041, 6.250e-8
0.042, 6.890e-8
0.043, 7.444e-8
0.044, 8.033e-8
0.045, 8.548e-8
0.046, 9.104e-8
0.047, 9.681e-8
0.048, 1.019e-7
0.049, 1.073e-7
0.050, 1.121e-7
0.051, 1.177e-7
0.052, 1.230e-7
0.053, 1.264e-7
0.054, 1.320e-7
0.055, 1.365e-7
0.056, 1.404e-7
0.057, 1.456e-7
0.058, 1.497e-7
0.059, 1.535e-7
0.060, 1.584e-7
0.061, 1.624e-7
0.062, 1.666e-7
0.063, 1.706e-7
0.064, 1.740e-7
0.065, 1.786e-7
0.066, 1.815e-7
0.067, 1.859e-7
0.068, 1.897e-7
0.069, 1.925e-7
0.070, 1.965e-7
0.071, 2.003e-7
0.072, 2.037e-7
0.073, 2.070e-7
0.074, 2.104e-7
0.075, 2.132e-7
0.076, 2.164e-7
0.077, 2.195e-7
0.078, 2.229e-7
0.079, 2.255e-7
0.080, 2.289e-7
0.081, 2.320e-7
0.082, 2.356e-7
0.083, 2.387e-7
0.084, 2.412e-7
0.085, 2.441e-7
0.086, 2.468e-7
0.087, 2.504e-7
0.088, 2.526e-7
0.089, 2.555e-7
0.090, 2.584e-7
0.091, 2.608e-7
0.092, 2.639e-7
0.093, 2.659e-7
0.094, 2.688e-7
0.095, 2.712e-7
0.096, 2.736e-7
0.097, 2.767e-7
0.098, 2.789e-7
0.099, 2.811e-7
0.100, 2.840e-7
0.101, 2.856e-7
0.102, 2.898e-7
0.103, 2.917e-7
0.104, 2.929e-7
0.105, 2.957e-7
0.106, 2.972e-7
0.107, 3.000e-7
0.108, 3.025e-7
0.109, 3.040e-7
0.110, 3.069e-7
0.111, 3.091e-7
0.112, 3.115e-7
0.113, 3.134e-7
0.114, 3.152e-7
0.115, 3.177e-7
0.116, 3.200e-7
0.117, 3.216e-7
0.118, 3.238e-7
0.119, 3.264e-7
0.120, 3.282e-7
0.121, 3.305e-7
0.122, 3.327e-7
0.123, 3.348e-7
0.124, 3.368e-7
0.125, 3.388e-7
0.126, 3.409e-7
0.127, 3.436e-7
0.128, 3.459e-7
0.129, 3.475e-7
0.130, 3.493e-7
0.131, 3.507e-7
0.132, 3.537e-7
0.133, 3.549e-7
0.134, 3.571e-7
0.135, 3.593e-7
0.136, 3.606e-7
0.137, 3.626e-7
0.138, 3.641e-7
0.139, 3.654e-7
0.140, 3.677e-7
0.141, 3.694e-7
0.142, 3.715e-7
0.143, 3.730e-7
0.144, 3.748e-7
0.145, 3.771e-7
0.146, 3.791e-7
0.147, 3.811e-7
0.148, 3.835e-7
0.149, 3.851e-7
0.150, 3.878e-7
0.151, 3.897e-7
0.152, 3.913e-7
0.153, 3.946e-7
0.154, 3.964e-7
0.155, 3.980e-7
0.156, 4.005e-7
0.157, 4.024e-7
0.158, 4.045e-7
0.159, 4.067e-7
0.160, 4.089e-7
0.161, 4.112e-7
0.162, 4.133e-7
0.163, 4.154e-7
0.164, 4.181e-7
0.165, 4.197e-7
0.166, 4.222e-7
0.167, 4.249e-7
0.168, 4.267e-7
0.169, 4.292e-7
0.170, 4.314e-7
0.171, 4.332e-7
0.172, 4.367e-7
0.173, 4.382e-7
0.174, 4.407e-7
0.175, 4.433e-7
0.176, 4.452e-7
0.177, 4.481e-7
0.178, 4.502e-7
0.179, 4.533e-7
0.180, 4.554e-7
0.181, 4.577e-7
0.182, 4.605e-7
0.183, 4.627e-7
0.184, 4.647e-7
0.185, 4.679e-7
0.186, 4.700e-7
0.187, 4.731e-7
0.188, 4.761e-7
0.189, 4.781e-7
0.190, 4.813e-7
0.191, 4.835e-7
0.192, 4.866e-7
0.193, 4.893e-7
0.194, 4.917e-7
0.195, 4.945e-7
0.196, 4.978e-7
0.197, 5.002e-7
0.198, 5.035e-7
0.199, 5.065e-7
0.200, 5.087e-7
0.201, 5.120e-7
0.202, 5.151e-7
0.203, 5.176e-7
0.204, 5.210e-7
0.205, 5.251e-7
0.206, 5.274e-7
0.207, 5.311e-7
0.208, 5.337e-7
0.209, 5.371e-7
0.210, 5.397e-7
0.211, 5.430e-7
0.212, 5.463e-7
0.213, 5.495e-7
0.214, 5.524e-7
0.215, 5.556e-7
0.216, 5.589e-7
0.217, 5.632e-7
0.218, 5.665e-7
0.219, 5.696e-7
0.220, 5.734e-7
0.221, 5.764e-7
0.222, 5.805e-7
0.223, 5.840e-7
0.224, 5.869e-7
0.225, 5.909e-7
0.226, 5.943e-7
0.227, 5.979e-7
0.228, 6.018e-7
0.229, 6.048e-7
0.230, 6.094e-7
0.231, 6.135e-7
0.232, 6.165e-7
0.233, 6.206e-7
0.234, 6.244e-7
0.235, 6.281e-7
0.236, 6.320e-7
0.237, 6.360e-7
0.238, 6.400e-7
0.239, 6.440e-7
0.240, 6.478e-7
0.241, 6.520e-7
0.242, 6.562e-7
0.243, 6.605e-7
0.244, 6.645e-7
0.245, 6.684e-7
0.246, 6.728e-7
0.247, 6.771e-7
0.248, 6.811e-7
0.249, 6.855e-7
0.250, 6.899e-7
0.251, 6.939e-7
0.252, 6.988e-7
0.253, 7.026e-7
0.254, 7.073e-7
0.255, 7.118e-7
0.256, 7.164e-7
0.257, 7.208e-7
0.258, 7.254e-7
0.259, 7.296e-7
0.260, 7.343e-7
0.261, 7.388e-7
0.262, 7.437e-7
0.263, 7.489e-7
0.264, 7.533e-7
0.265, 7.590e-7
0.266, 7.637e-7
0.267, 7.680e-7
0.268, 7.734e-7
0.269, 7.783e-7
0.270, 7.830e-7
0.271, 7.877e-7
0.272, 7.924e-7
0.273, 7.978e-7
0.274, 8.022e-7
0.275, 8.075e-7
0.276, 8.122e-7
0.277, 8.170e-7
0.278, 8.228e-7
0.279, 8.271e-7
0.280, 8.328e-7
0.281, 8.379e-7
0.282, 8.436e-7
0.283, 8.481e-7
0.284, 8.537e-7
0.285, 8.581e-7
0.286, 8.638e-7
0.287, 8.687e-7
0.288, 8.740e-7
0.289, 8.794e-7
0.290, 8.845e-7
0.291, 8.898e-7
0.292, 8.955e-7
0.293, 9.005e-7
0.294, 9.063e-7
0.295, 9.118e-7
0.296, 9.167e-7
0.297, 9.228e-7
0.298, 9.283e-7
0.299, 9.336e-7
0.300, 9.395e-7
0.301, 9.443e-7
0.302, 9.505e-7
0.303, 9.561e-7
0.304, 9.611e-7
0.305, 9.673e-7
0.306, 9.727e-7
0.307, 9.800e-7
0.308, 9.858e-7
0.309, 9.900e-7
0.310, 9.962e-7
0.311, 1.002e-6
0.312, 1.007e-6
0.313, 1.013e-6
0.314, 1.019e-6
0.315, 1.025e-6
0.316, 1.031e-6
0.317, 1.037e-6
0.318, 1.043e-6
0.319, 1.049e-6
0.320, 1.055e-6
0.321, 1.061e-6
0.322, 1.067e-6
0.323, 1.073e-6
0.324, 1.080e-6
0.325, 1.085e-6
0.326, 1.092e-6
0.327, 1.098e-6
0.328, 1.104e-6
0.329, 1.110e-6
0.330, 1.116e-6
0.331, 1.122e-6
0.332, 1.129e-6
0.333, 1.136e-6
0.334, 1.142e-6
0.335, 1.148e-6
0.336, 1.154e-6
0.337, 1.160e-6
0.338, 1.166e-6
0.339, 1.173e-6
0.340, 1.180e-6
0.341, 1.185e-6
0.342, 1.192e-6
0.343, 1.199e-6
0.344, 1.206e-6
0.345, 1.212e-6
0.346, 1.219e-6
0.347, 1.226e-6
0.348, 1.232e-6
0.349, 1.238e-6
0.350, 1.246e-6
0.351, 1.252e-6
0.352, 1.259e-6
0.353, 1.266e-6
0.354, 1.271e-6
0.355, 1.279e-6
0.356, 1.286e-6
0.357, 1.293e-6
0.358, 1.300e-6
0.359, 1.307e-6
0.360, 1.314e-6
0.361, 1.321e-6
0.362, 1.327e-6
0.363, 1.334e-6
0.364, 1.341e-6
0.365, 1.349e-6
0.366, 1.355e-6
0.367, 1.362e-6
0.368, 1.369e-6
0.369, 1.376e-6
0.370, 1.384e-6
0.371, 1.391e-6
0.372, 1.399e-6
0.373, 1.405e-6
0.374, 1.412e-6
0.375, 1.420e-6
0.376, 1.427e-6
0.377, 1.435e-6
0.378, 1.442e-6
0.379, 1.449e-6
0.380, 1.457e-6
0.381, 1.463e-6
0.382, 1.472e-6
0.383, 1.479e-6
0.384, 1.487e-6
0.385, 1.495e-6
0.386, 1.502e-6
0.387, 1.510e-6
0.388, 1.518e-6
0.389, 1.524e-6
0.390, 1.533e-6
0.391, 1.542e-6
0.392, 1.549e-6
0.393, 1.557e-6
0.394, 1.564e-6
0.395, 1.572e-6
0.396, 1.581e-6
0.397, 1.589e-6
0.398, 1.597e-6
0.399, 1.604e-6
0.400, 1.612e-6
0.401, 1.620e-6
0.402, 1.628e-6
0.403, 1.637e-6
0.404, 1.645e-6
0.405, 1.652e-6
0.406, 1.660e-6
0.407, 1.669e-6
0.408, 1.677e-6
0.409, 1.686e-6
0.410, 1.696e-6
0.411, 1.703e-6
0.412, 1.711e-6
0.413, 1.719e-6
0.414, 1.727e-6
0.415, 1.736e-6
0.416, 1.744e-6
0.417, 1.753e-6
0.418, 1.761e-6
0.419, 1.769e-6
0.420, 1.778e-6
0.421, 1.786e-6
0.422, 1.795e-6
0.423, 1.804e-6
0.424, 1.812e-6
0.425, 1.821e-6
0.426, 1.829e-6
0.427, 1.839e-6
0.428, 1.848e-6
0.429, 1.856e-6
0.430, 1.865e-6
0.431, 1.874e-6
0.432, 1.882e-6
0.433, 1.892e-6
0.434, 1.900e-6
0.435, 1.910e-6
0.436, 1.920e-6
0.437, 1.928e-6
0.438, 1.937e-6
0.439, 1.944e-6
0.440, 1.954e-6
0.441, 1.963e-6
0.442, 1.972e-6
0.443, 1.981e-6
0.444, 1.991e-6
0.445, 2.000e-6
0.446, 2.009e-6
0.447, 2.019e-6
0.448, 2.028e-6
0.449, 2.038e-6
0.450, 2.047e-6
0.451, 2.056e-6
0.452, 2.067e-6
0.453, 2.076e-6
0.454, 2.086e-6
0.455, 2.097e-6
0.456, 2.105e-6
0.457, 2.116e-6
0.458, 2.126e-6
0.459, 2.135e-6
0.460, 2.146e-6
0.461, 2.156e-6
0.462, 2.166e-6
0.463, 2.176e-6
0.464, 2.186e-6
0.465, 2.195e-6
0.466, 2.205e-6
0.467, 2.216e-6
0.468, 2.227e-6
0.469, 2.237e-6
0.470, 2.248e-6
0.471, 2.259e-6
0.472, 2.269e-6
0.473, 2.280e-6
0.474, 2.290e-6
0.475, 2.301e-6
0.476, 2.312e-6
0.477, 2.323e-6
0.478, 2.335e-6
0.479, 2.346e-6
0.480, 2.357e-6
0.481, 2.367e-6
0.482, 2.379e-6
0.483, 2.390e-6
0.484, 2.402e-6
0.485, 2.412e-6
0.486, 2.424e-6
0.487, 2.436e-6
0.488, 2.447e-6
0.489, 2.458e-6
0.490, 2.470e-6
0.491, 2.482e-6
0.492, 2.494e-6
0.493, 2.505e-6
0.494, 2.517e-6
0.495, 2.528e-6
0.496, 2.540e-6
0.497, 2.553e-6
0.498, 2.564e-6
0.499, 2.577e-6
0.500, 2.589e-6
0.501, 2.601e-6
0.502, 2.613e-6
0.503, 2.626e-6
0.504, 2.638e-6
0.505, 2.651e-6
0.506, 2.663e-6
0.507, 2.676e-6
0.508, 2.689e-6
0.509, 2.702e-6
0.510, 2.715e-6
0.511, 2.728e-6
0.512, 2.743e-6
0.513, 2.755e-6
0.514, 2.768e-6
0.515, 2.781e-6
0.516, 2.795e-6
0.517, 2.807e-6
0.518, 2.822e-6
0.519, 2.835e-6
0.520, 2.850e-6
0.521, 2.864e-6
0.522, 2.878e-6
0.523, 2.892e-6
0.524, 2.907e-6
0.525, 2.922e-6
0.526, 2.936e-6
0.527, 2.951e-6
0.528, 2.965e-6
0.529, 2.981e-6
0.530, 2.995e-6
0.531, 3.010e-6
0.532, 3.026e-6
0.533, 3.041e-6
0.534, 3.057e-6
0.535, 3.073e-6
0.536, 3.089e-6
0.537, 3.106e-6
0.538, 3.124e-6
0.539, 3.140e-6
0.540, 3.157e-6
0.541, 3.173e-6
0.542, 3.190e-6
0.543, 3.207e-6
0.544, 3.224e-6
0.545, 3.242e-6
0.546, 3.260e-6
0.547, 3.277e-6
0.548, 3.296e-6
0.549, 3.313e-6
0.550, 3.332e-6
0.551, 3.351e-6
0.552, 3.369e-6
0.553, 3.389e-6
0.554, 3.408e-6
0.555, 3.427e-6
0.556, 3.447e-6
0.557, 3.467e-6
0.558, 3.488e-6
0.559, 3.507e-6
0.560, 3.527e-6
0.561, 3.548e-6
0.562, 3.569e-6
0.563, 3.592e-6
0.564, 3.614e-6
0.565, 3.637e-6
0.566, 3.659e-6
0.567, 3.683e-6
0.568, 3.706e-6
0.569, 3.730e-6
0.570, 3.753e-6
0.571, 3.778e-6
0.572, 3.804e-6
0.573, 3.828e-6
0.574, 3.854e-6
0.575, 3.881e-6
0.576, 3.909e-6
0.577, 3.937e-6
0.578, 3.964e-6
0.579, 3.992e-6
0.580, 4.021e-6
0.581, 4.049e-6
0.582, 4.079e-6
0.583, 4.109e-6
0.584, 4.139e-6
0.585, 4.171e-6
0.586, 4.202e-6
0.587, 4.234e-6
0.588, 4.268e-6
0.589, 4.301e-6
0.590, 4.335e-6
0.591, 4.370e-6
0.592, 4.405e-6
0.593, 4.442e-6
0.594, 4.478e-6
0.595, 4.516e-6
0.596, 4.555e-6
0.597, 4.593e-6
0.598, 4.633e-6
0.599, 4.674e-6
0.600, 4.717e-6
0.601, 4.760e-6
0.602, 4.802e-6
0.603, 4.847e-6
0.604, 4.892e-6
0.605, 4.938e-6
0.606, 4.985e-6
0.607, 5.033e-6
0.608, 5.081e-6
0.609, 5.130e-6
0.610, 5.181e-6
0.611, 5.233e-6
0.612, 5.287e-6
0.613, 5.341e-6
0.614, 5.397e-6
0.615, 5.456e-6
0.616, 5.515e-6
0.617, 5.575e-6
0.618, 5.636e-6
0.619, 5.697e-6
0.620, 5.762e-6
0.621, 5.827e-6
0.622, 5.893e-6
0.623, 5.961e-6
0.624, 6.030e-6
0.625, 6.102e-6
0.626, 6.175e-6
0.627, 6.251e-6
0.628, 6.329e-6
0.629, 6.406e-6
0.630, 6.487e-6
0.631, 6.568e-6
0.632, 6.651e-6
0.633, 6.735e-6
0.634, 6.822e-6
0.635, 6.912e-6
0.636, 7.003e-6
0.637, 7.099e-6
0.638, 7.196e-6
0.639, 7.293e-6
0.640, 7.395e-6
0.641, 7.497e-6
0.642, 7.602e-6
0.643, 7.709e-6
0.644, 7.820e-6
0.645, 7.933e-6
0.646, 8.049e-6
0.647, 8.166e-6
0.648, 8.284e-6
0.649, 8.407e-6
0.650, 8.533e-6
0.651, 8.663e-6
0.652, 8.795e-6
0.653, 8.929e-6
0.654, 9.066e-6
0.655, 9.207e-6
0.656, 9.349e-6
0.657, 9.498e-6
0.658, 9.647e-6
0.659, 9.799e-6
0.660, 9.954e-6
0.661, 1.011e-5
0.662, 1.028e-5
0.663, 1.044e-5
0.664, 1.061e-5
0.665, 1.079e-5
0.666, 1.097e-5
0.667, 1.115e-5
0.668, 1.133e-5
0.669, 1.152e-5
0.670, 1.171e-5
0.671, 1.191e-5
0.672, 1.211e-5
0.673, 1.231e-5
0.674, 1.252e-5
0.675, 1.273e-5
0.676, 1.294e-5
0.677, 1.316e-5
0.678, 1.339e-5
0.679, 1.362e-5
0.680, 1.385e-5
0.681, 1.408e-5
0.682, 1.433e-5
0.683, 1.457e-5
0.684, 1.482e-5
0.685, 1.507e-5
0.686, 1.533e-5
0.687, 1.559e-5
0.688, 1.586e-5
0.689, 1.613e-5
0.690, 1.641e-5
0.691, 1.669e-5
0.692, 1.698e-5
0.693, 1.727e-5
0.694, 1.756e-5
0.695, 1.786e-5
0.696, 1.816e-5
0.697, 1.847e-5
0.698, 1.879e-5
0.699, 1.910e-5
0.700, 1.943e-5
0.701, 1.975e-5
0.702, 2.009e-5
0.703, 2.042e-5
0.704, 2.076e-5
0.705, 2.111e-5
0.706, 2.146e-5
0.707, 2.182e-5
0.708, 2.218e-5
0.709, 2.254e-5
0.710, 2.292e-5
0.711, 2.329e-5
0.712, 2.367e-5
0.713, 2.405e-5
0.714, 2.444e-5
0.715, 2.484e-5
0.716, 2.524e-5
0.717, 2.564e-5
0.718, 2.605e-5
0.719, 2.647e-5
0.720, 2.688e-5
0.721, 2.731e-5
0.722, 2.773e-5
0.723, 2.816e-5
0.724, 2.860e-5
0.725, 2.904e-5
0.726, 2.948e-5
0.727, 2.993e-5
0.728, 3.039e-5
0.729, 3.085e-5
0.730, 3.131e-5
0.731, 3.177e-5
0.732, 3.224e-5
0.733, 3.272e-5
0.734, 3.320e-5
0.735, 3.368e-5
0.736, 3.417e-5
0.737, 3.467e-5
0.738, 3.516e-5
0.739, 3.566e-5
0.740, 3.617e-5
0.741, 3.667e-5
0.742, 3.719e-5
0.743, 3.771e-5
0.744, 3.823e-5
0.745, 3.875e-5
0.746, 3.928e-5
0.747, 3.981e-5
0.748, 4.035e-5
0.749, 4.088e-5
0.750, 4.143e-5
0.751, 4.197e-5
0.752, 4.252e-5
0.753, 4.307e-5
0.754, 4.363e-5
0.755, 4.419e-5
0.756, 4.475e-5
0.757, 4.532e-5
0.758, 4.589e-5
0.759, 4.646e-5
0.760, 4.704e-5
0.761, 4.762e-5
0.762, 4.820e-5
0.763, 4.879e-5
0.764, 4.937e-5
0.765, 4.996e-5
0.766, 5.056e-5
0.767, 5.115e-5
0.768, 5.176e-5
0.769, 5.237e-5
0.770, 5.297e-5
0.771, 5.358e-5
0.772, 5.419e-5
0.773, 5.480e-5
0.774, 5.542e-5
0.775, 5.603e-5
0.776, 5.665e-5
0.777, 5.728e-5
0.778, 5.790e-5
0.779, 5.853e-5
0.780, 5.916e-5
0.781, 5.979e-5
0.782, 6.042e-5
0.783, 6.106e-5
0.784, 6.170e-5
0.785, 6.234e-5
0.786, 6.298e-5
0.787, 6.363e-5
0.788, 6.427e-5
0.789, 6.492e-5
0.790, 6.557e-5
0.791, 6.623e-5
0.792, 6.688e-5
0.793, 6.754e-5
0.794, 6.820e-5
0.795, 6.886e-5
0.796, 6.952e-5
0.797, 7.019e-5
0.798, 7.085e-5
0.799, 7.152e-5
0.800, 7.199e-5
0.799, 7.144e-5
0.798, 7.053e-5
0.797, 6.957e-5
0.796, 6.863e-5
0.795, 6.770e-5
0.794, 6.678e-5
0.793, 6.586e-5
0.792, 6.496e-5
0.791, 6.407e-5
0.790, 6.319e-5
0.789, 6.233e-5
0.788, 6.147e-5
0.787, 6.062e-5
0.786, 5.977e-5
0.785, 5.894e-5
0.784, 5.811e-5
0.783, 5.730e-5
0.782, 5.649e-5
0.781, 5.568e-5
0.780, 5.489e-5
0.779, 5.411e-5
0.778, 5.333e-5
0.777, 5.256e-5
0.776, 5.179e-5
0.775, 5.104e-5
0.774, 5.029e-5
0.773, 4.955e-5
0.772, 4.882e-5
0.771, 4.809e-5
0.770, 4.737e-5
0.769, 4.666e-5
0.768, 4.595e-5
0.767, 4.525e-5
0.766, 4.456e-5
0.765, 4.388e-5
0.764, 4.319e-5
0.763, 4.252e-5
0.762, 4.186e-5
0.761, 4.120e-5
0.760, 4.055e-5
0.759, 3.990e-5
0.758, 3.926e-5
0.757, 3.863e-5
0.756, 3.801e-5
0.755, 3.739e-5
0.754, 3.678e-5
0.753, 3.617e-5
0.752, 3.557e-5
0.751, 3.498e-5
0.750, 3.440e-5
0.749, 3.381e-5
0.748, 3.324e-5
0.747, 3.267e-5
0.746, 3.211e-5
0.745, 3.156e-5
0.744, 3.101e-5
0.743, 3.047e-5
0.742, 2.993e-5
0.741, 2.940e-5
0.740, 2.888e-5
0.739, 2.836e-5
0.738, 2.785e-5
0.737, 2.735e-5
0.736, 2.685e-5
0.735, 2.635e-5
0.734, 2.587e-5
0.733, 2.539e-5
0.732, 2.491e-5
0.731, 2.445e-5
0.730, 2.398e-5
0.729, 2.353e-5
0.728, 2.308e-5
0.727, 2.263e-5
0.726, 2.220e-5
0.725, 2.176e-5
0.724, 2.134e-5
0.723, 2.091e-5
0.722, 2.050e-5
0.721, 2.009e-5
0.720, 1.969e-5
0.719, 1.929e-5
0.718, 1.890e-5
0.717, 1.851e-5
0.716, 1.813e-5
0.715, 1.775e-5
0.714, 1.738e-5
0.713, 1.702e-5
0.712, 1.666e-5
0.711, 1.631e-5
0.710, 1.597e-5
0.709, 1.562e-5
0.708, 1.529e-5
0.707, 1.496e-5
0.706, 1.463e-5
0.705, 1.431e-5
0.704, 1.400e-5
0.703, 1.369e-5
0.702, 1.338e-5
0.701, 1.308e-5
0.700, 1.279e-5
0.699, 1.250e-5
0.698, 1.222e-5
0.697, 1.194e-5
0.696, 1.167e-5
0.695, 1.140e-5
0.694, 1.114e-5
0.693, 1.088e-5
0.692, 1.062e-5
0.691, 1.037e-5
0.690, 1.013e-5
0.689, 9.888e-6
0.688, 9.655e-6
0.687, 9.423e-6
0.686, 9.196e-6
0.685, 8.974e-6
0.684, 8.758e-6
0.683, 8.543e-6
0.682, 8.335e-6
0.681, 8.133e-6
0.680, 7.933e-6
0.679, 7.735e-6
0.678, 7.543e-6
0.677, 7.356e-6
0.676, 7.171e-6
0.675, 6.991e-6
0.674, 6.814e-6
0.673, 6.644e-6
0.672, 6.476e-6
0.671, 6.310e-6
0.670, 6.148e-6
0.669, 5.990e-6
0.668, 5.836e-6
0.667, 5.686e-6
0.666, 5.538e-6
0.665, 5.392e-6
0.664, 5.252e-6
0.663, 5.115e-6
0.662, 4.983e-6
0.661, 4.852e-6
0.660, 4.724e-6
0.659, 4.598e-6
0.658, 4.475e-6
0.657, 4.356e-6
0.656, 4.241e-6
0.655, 4.127e-6
0.654, 4.018e-6
0.653, 3.908e-6
0.652, 3.802e-6
0.651, 3.699e-6
0.650, 3.599e-6
0.649, 3.503e-6
0.648, 3.409e-6
0.647, 3.316e-6
0.646, 3.226e-6
0.645, 3.137e-6
0.644, 3.050e-6
0.643, 2.966e-6
0.642, 2.885e-6
0.641, 2.805e-6
0.640, 2.727e-6
0.639, 2.652e-6
0.638, 2.579e-6
0.637, 2.507e-6
0.636, 2.437e-6
0.635, 2.370e-6
0.634, 2.302e-6
0.633, 2.237e-6
0.632, 2.175e-6
0.631, 2.113e-6
0.630, 2.055e-6
0.629, 1.997e-6
0.628, 1.941e-6
0.627, 1.888e-6
0.626, 1.834e-6
0.625, 1.783e-6
0.624, 1.732e-6
0.623, 1.682e-6
0.622, 1.635e-6
0.621, 1.588e-6
0.620, 1.542e-6
0.619, 1.496e-6
0.618, 1.453e-6
0.617, 1.412e-6
0.616, 1.371e-6
0.615, 1.331e-6
0.614, 1.293e-6
0.613, 1.255e-6
0.612, 1.219e-6
0.611, 1.184e-6
0.610, 1.150e-6
0.609, 1.117e-6
0.608, 1.084e-6
0.607, 1.052e-6
0.606, 1.022e-6
0.605, 9.913e-7
0.604, 9.618e-7
0.603, 9.337e-7
0.602, 9.052e-7
0.601, 8.786e-7
0.600, 8.526e-7
0.599, 8.265e-7
0.598, 8.019e-7
0.597, 7.772e-7
0.596, 7.528e-7
0.595, 7.298e-7
0.594, 7.069e-7
0.593, 6.853e-7
0.592, 6.639e-7
0.591, 6.424e-7
0.590, 6.235e-7
0.589, 6.030e-7
0.588, 5.835e-7
0.587, 5.655e-7
0.586, 5.470e-7
0.585, 5.298e-7
0.584, 5.128e-7
0.583, 4.951e-7
0.582, 4.793e-7
0.581, 4.629e-7
0.580, 4.476e-7
0.579, 4.327e-7
0.578, 4.176e-7
0.577, 4.034e-7
0.576, 3.895e-7
0.575, 3.753e-7
0.574, 3.639e-7
0.573, 3.513e-7
0.572, 3.390e-7
0.571, 3.261e-7
0.570, 3.141e-7
0.569, 3.025e-7
0.568, 2.904e-7
0.567, 2.790e-7
0.566, 2.684e-7
0.565, 2.575e-7
0.564, 2.467e-7
0.563, 2.358e-7
0.562, 2.258e-7
0.561, 2.162e-7
0.560, 2.068e-7
0.559, 1.969e-7
0.558, 1.881e-7
0.557, 1.788e-7
0.556, 1.696e-7
0.555, 1.616e-7
0.554, 1.531e-7
0.553, 1.448e-7
0.552, 1.364e-7
0.551, 1.282e-7
0.550, 1.211e-7
0.549, 1.132e-7
0.548, 1.055e-7
0.547, 9.821e-8
0.546, 9.061e-8
0.545, 8.412e-8
0.544, 7.700e-8
0.543, 6.952e-8
0.542, 6.366e-8
0.541, 5.705e-8
0.540, 5.027e-8
0.539, 4.426e-8
0.538, 3.759e-8
0.537, 3.092e-8
0.536, 2.586e-8
0.535, 1.948e-8
0.534, 1.410e-8
0.533, 8.348e-9
0.532, 2.402e-9
0.531, -2.766e-9
0.530, -8.269e-9
0.529, -1.303e-8
0.528, -1.884e-8
0.527, -2.412e-8
0.526, -2.865e-8
0.525, -3.415e-8
0.524, -4.006e-8
0.523, -4.504e-8
0.522, -5.003e-8
0.521, -5.464e-8
0.520, -5.966e-8
0.519, -6.509e-8
0.518, -6.894e-8
0.517, -7.384e-8
0.516, -7.913e-8
0.515, -8.260e-8
0.514, -8.726e-8
0.513, -9.145e-8
0.512, -9.692e-8
0.511, -1.008e-7
0.510, -1.035e-7
0.509, -1.077e-7
0.508, -1.116e-7
0.507, -1.149e-7
0.506, -1.198e-7
0.505, -1.233e-7
0.504, -1.269e-7
0.503, -1.311e-7
0.502, -1.342e-7
0.501, -1.381e-7
0.500, -1.420e-7
0.499, -1.452e-7
0.498, -1.492e-7
0.497, -1.520e-7
0.496, -1.558e-7
0.495, -1.597e-7
0.494, -1.624e-7
0.493, -1.663e-7
0.492, -1.698e-7
0.491, -1.725e-7
0.490, -1.762e-7
0.489, -1.796e-7
0.488, -1.826e-7
0.487, -1.861e-7
0.486, -1.898e-7
0.485, -1.926e-7
0.484, -1.954e-7
0.483, -1.989e-7
0.482, -2.022e-7
0.481, -2.050e-7
0.480, -2.082e-7
0.479, -2.113e-7
0.478, -2.136e-7
0.477, -2.168e-7
0.476, -2.197e-7
0.475, -2.223e-7
0.474, -2.255e-7
0.473, -2.283e-7
0.472, -2.310e-7
0.471, -2.344e-7
0.470, -2.372e-7
0.469, -2.398e-7
0.468, -2.425e-7
0.467, -2.448e-7
0.466, -2.483e-7
0.465, -2.509e-7
0.464, -2.535e-7
0.463, -2.571e-7
0.462, -2.591e-7
0.461, -2.625e-7
0.460, -2.655e-7
0.459, -2.674e-7
0.458, -2.704e-7
0.457, -2.727e-7
0.456, -2.754e-7
0.455, -2.782e-7
0.454, -2.803e-7
0.453, -2.837e-7
0.452, -2.864e-7
0.451, -2.885e-7
0.450, -2.916e-7
0.449, -2.937e-7
0.448, -2.966e-7
0.447, -2.995e-7
0.446, -3.010e-7
0.445, -3.038e-7
0.444, -3.067e-7
0.443, -3.091e-7
0.442, -3.118e-7
0.441, -3.145e-7
0.440, -3.163e-7
0.439, -3.194e-7
0.438, -3.217e-7
0.437, -3.245e-7
0.436, -3.270e-7
0.435, -3.300e-7
0.434, -3.321e-7
0.433, -3.346e-7
0.432, -3.370e-7
0.431, -3.398e-7
0.430, -3.415e-7
0.429, -3.442e-7
0.428, -3.471e-7
0.427, -3.489e-7
0.426, -3.516e-7
0.425, -3.538e-7
0.424, -3.559e-7
0.423, -3.589e-7
0.422, -3.609e-7
0.421, -3.638e-7
0.420, -3.659e-7
0.419, -3.681e-7
0.418, -3.711e-7
0.417, -3.732e-7
0.416, -3.758e-7
0.415, -3.784e-7
0.414, -3.804e-7
0.413, -3.830e-7
0.412, -3.852e-7
0.411, -3.869e-7
0.410, -3.912e-7
0.409, -3.946e-7
0.408, -3.956e-7
0.407, -3.979e-7
0.406, -3.995e-7
0.405, -4.024e-7
0.404, -4.047e-7
0.403, -4.067e-7
0.402, -4.095e-7
0.401, -4.112e-7
0.400, -4.138e-7
0.399, -4.163e-7
0.398, -4.185e-7
0.397, -4.211e-7
0.396, -4.237e-7
0.395, -4.248e-7
0.394, -4.277e-7
0.393, -4.300e-7
0.392, -4.319e-7
0.391, -4.345e-7
0.390, -4.364e-7
0.389, -4.391e-7
0.388, -4.415e-7
0.387, -4.434e-7
0.386, -4.463e-7
0.385, -4.482e-7
0.384, -4.513e-7
0.383, -4.540e-7
0.382, -4.558e-7
0.381, -4.580e-7
0.380, -4.608e-7
0.379, -4.625e-7
0.378, -4.653e-7
0.377, -4.675e-7
0.376, -4.696e-7
0.375, -4.722e-7
0.374, -4.743e-7
0.373, -4.770e-7
0.372, -4.791e-7
0.371, -4.814e-7
0.370, -4.845e-7
0.369, -4.862e-7
0.368, -4.888e-7
0.367, -4.909e-7
0.366, -4.931e-7
0.365, -4.954e-7
0.364, -4.978e-7
0.363, -5.002e-7
0.362, -5.026e-7
0.361, -5.050e-7
0.360, -5.070e-7
0.359, -5.102e-7
0.358, -5.129e-7
0.357, -5.148e-7
0.356, -5.171e-7
0.355, -5.196e-7
0.354, -5.216e-7
0.353, -5.241e-7
0.352, -5.264e-7
0.351, -5.290e-7
0.350, -5.310e-7
0.349, -5.336e-7
0.348, -5.363e-7
0.347, -5.380e-7
0.346, -5.415e-7
0.345, -5.435e-7
0.344, -5.457e-7
0.343, -5.487e-7
0.342, -5.500e-7
0.341, -5.525e-7
0.340, -5.559e-7
0.339, -5.573e-7
0.338, -5.608e-7
0.337, -5.624e-7
0.336, -5.650e-7
0.335, -5.675e-7
0.334, -5.695e-7
0.333, -5.731e-7
0.332, -5.758e-7
0.331, -5.772e-7
0.330, -5.802e-7
0.329, -5.824e-7
0.328, -5.847e-7
0.327, -5.874e-7
0.326, -5.892e-7
0.325, -5.922e-7
0.324, -5.943e-7
0.323, -5.970e-7
0.322, -5.992e-7
0.321, -6.018e-7
0.320, -6.043e-7
0.319, -6.074e-7
0.318, -6.092e-7
0.317, -6.115e-7
0.316, -6.148e-7
0.315, -6.165e-7
0.314, -6.195e-7
0.313, -6.219e-7
0.312, -6.236e-7
0.311, -6.274e-7
0.310, -6.295e-7
0.309, -6.315e-7
0.308, -6.348e-7
0.307, -6.384e-7
0.306, -6.399e-7
0.305, -6.422e-7
0.304, -6.444e-7
0.303, -6.473e-7
0.302, -6.492e-7
0.301, -6.521e-7
0.300, -6.551e-7
0.299, -6.571e-7
0.298, -6.604e-7
0.297, -6.625e-7
0.296, -6.649e-7
0.295, -6.674e-7
0.294, -6.704e-7
0.293, -6.732e-7
0.292, -6.754e-7
0.291, -6.783e-7
0.290, -6.810e-7
0.289, -6.830e-7
0.288, -6.861e-7
0.287, -6.887e-7
0.286, -6.908e-7
0.285, -6.936e-7
0.284, -6.963e-7
0.283, -6.990e-7
0.282, -7.024e-7
0.281, -7.051e-7
0.280, -7.075e-7
0.279, -7.100e-7
0.278, -7.124e-7
0.277, -7.146e-7
0.276, -7.177e-7
0.275, -7.206e-7
0.274, -7.233e-7
0.273, -7.257e-7
0.272, -7.284e-7
0.271, -7.316e-7
0.270, -7.339e-7
0.269, -7.368e-7
0.268, -7.402e-7
0.267, -7.414e-7
0.266, -7.451e-7
0.265, -7.472e-7
0.264, -7.503e-7
0.263, -7.540e-7
0.262, -7.553e-7
0.261, -7.590e-7
0.260, -7.615e-7
0.259, -7.641e-7
0.258, -7.675e-7
0.257, -7.696e-7
0.256, -7.734e-7
0.255, -7.761e-7
0.254, -7.784e-7
0.253, -7.814e-7
0.252, -7.846e-7
0.251, -7.867e-7
0.250, -7.902e-7
0.249, -7.929e-7
0.248, -7.956e-7
0.247, -7.986e-7
0.246, -8.010e-7
0.245, -8.041e-7
0.244, -8.073e-7
0.243, -8.100e-7
0.242, -8.127e-7
0.241, -8.155e-7
0.240, -8.184e-7
0.239, -8.218e-7
0.238, -8.250e-7
0.237, -8.284e-7
0.236, -8.316e-7
0.235, -8.344e-7
0.234, -8.376e-7
0.233, -8.405e-7
0.232, -8.435e-7
0.231, -8.464e-7
0.230, -8.503e-7
0.229, -8.532e-7
0.228, -8.562e-7
0.227, -8.588e-7
0.226, -8.613e-7
0.225, -8.647e-7
0.224, -8.680e-7
0.223, -8.716e-7
0.222, -8.735e-7
0.221, -8.774e-7
0.220, -8.803e-7
0.219, -8.828e-7
0.218, -8.867e-7
0.217, -8.889e-7
0.216, -8.921e-7
0.215, -8.958e-7
0.214, -8.982e-7
0.213, -9.020e-7
0.212, -9.047e-7
0.211, -9.074e-7
0.210, -9.111e-7
0.209, -9.141e-7
0.208, -9.170e-7
0.207, -9.206e-7
0.206, -9.231e-7
0.205, -9.283e-7
0.204, -9.314e-7
0.203, -9.338e-7
0.202, -9.371e-7
0.201, -9.403e-7
0.200, -9.428e-7
0.199, -9.466e-7
0.198, -9.498e-7
0.197, -9.526e-7
0.196, -9.565e-7
0.195, -9.593e-7
0.194, -9.627e-7
0.193, -9.663e-7
0.192, -9.694e-7
0.191, -9.728e-7
0.190, -9.762e-7
0.189, -9.793e-7
0.188, -9.834e-7
0.187, -9.857e-7
0.186, -9.894e-7
0.185, -9.929e-7
0.184, -9.960e-7
0.183, -1.000e-6
0.182, -1.002e-6
0.181, -1.007e-6
0.180, -1.010e-6
0.179, -1.014e-6
0.178, -1.018e-6
0.177, -1.020e-6
0.176, -1.024e-6
0.175, -1.027e-6
0.174, -1.030e-6
0.173, -1.034e-6
0.172, -1.038e-6
0.171, -1.041e-6
0.170, -1.045e-6
0.169, -1.048e-6
0.168, -1.052e-6
0.167, -1.055e-6
0.166, -1.059e-6
0.165, -1.063e-6
0.164, -1.067e-6
0.163, -1.070e-6
0.162, -1.074e-6
0.161, -1.077e-6
0.160, -1.081e-6
0.159, -1.085e-6
0.158, -1.089e-6
0.157, -1.092e-6
0.156, -1.096e-6
0.155, -1.100e-6
0.154, -1.104e-6
0.153, -1.108e-6
0.152, -1.111e-6
0.151, -1.115e-6
0.150, -1.119e-6
0.149, -1.123e-6
0.148, -1.127e-6
0.147, -1.130e-6
0.146, -1.135e-6
0.145, -1.138e-6
0.144, -1.142e-6
0.143, -1.147e-6
0.142, -1.149e-6
0.141, -1.154e-6
0.140, -1.159e-6
0.139, -1.162e-6
0.138, -1.167e-6
0.137, -1.170e-6
0.136, -1.175e-6
0.135, -1.179e-6
0.134, -1.182e-6
0.133, -1.187e-6
0.132, -1.191e-6
0.131, -1.195e-6
0.130, -1.200e-6
0.129, -1.203e-6
0.128, -1.208e-6
0.127, -1.212e-6
0.126, -1.215e-6
0.125, -1.219e-6
0.124, -1.223e-6
0.123, -1.228e-6
0.122, -1.232e-6
0.121, -1.236e-6
0.120, -1.240e-6
0.119, -1.246e-6
0.118, -1.250e-6
0.117, -1.254e-6
0.116, -1.259e-6
0.115, -1.263e-6
0.114, -1.268e-6
0.113, -1.272e-6
0.112, -1.277e-6
0.111, -1.282e-6
0.110, -1.286e-6
0.109, -1.291e-6
0.108, -1.296e-6
0.107, -1.300e-6
0.106, -1.305e-6
0.105, -1.310e-6
0.104, -1.315e-6
0.103, -1.320e-6
0.102, -1.326e-6
0.101, -1.330e-6
0.100, -1.335e-6
0.099, -1.340e-6
0.098, -1.346e-6
0.097, -1.350e-6
0.096, -1.355e-6
0.095, -1.360e-6
0.094, -1.365e-6
0.093, -1.371e-6
0.092, -1.376e-6
0.091, -1.381e-6
0.090, -1.387e-6
0.089, -1.392e-6
0.088, -1.398e-6
0.087, -1.403e-6
0.086, -1.408e-6
0.085, -1.414e-6
0.084, -1.420e-6
0.083, -1.425e-6
0.082, -1.431e-6
0.081, -1.436e-6
0.080, -1.442e-6
0.079, -1.449e-6
0.078, -1.454e-6
0.077, -1.460e-6
0.076, -1.467e-6
0.075, -1.472e-6
0.074, -1.479e-6
0.073, -1.485e-6
0.072, -1.491e-6
0.071, -1.497e-6
0.070, -1.503e-6
0.069, -1.510e-6
0.068, -1.517e-6
0.067, -1.522e-6
0.066, -1.529e-6
0.065, -1.536e-6
0.064, -1.543e-6
0.063, -1.550e-6
0.062, -1.556e-6
0.061, -1.563e-6
0.060, -1.570e-6
0.059, -1.577e-6
0.058, -1.584e-6
0.057, -1.591e-6
0.056, -1.599e-6
0.055, -1.607e-6
0.054, -1.614e-6
0.053, -1.622e-6
0.052, -1.630e-6
0.051, -1.638e-6
0.050, -1.646e-6
0.049, -1.653e-6
0.048, -1.662e-6
0.047, -1.670e-6
0.046, -1.677e-6
0.045, -1.685e-6
0.044, -1.693e-6
0.043, -1.702e-6
0.042, -1.710e-6
0.041, -1.718e-6
0.040, -1.727e-6
0.039, -1.736e-6
0.038, -1.745e-6
0.037, -1.753e-6
0.036, -1.763e-6
0.035, -1.771e-6
0.034, -1.780e-6
0.033, -1.790e-6
0.032, -1.799e-6
0.031, -1.808e-6
0.030, -1.817e-6
0.029, -1.827e-6
0.028, -1.837e-6
0.027, -1.846e-6
0.026, -1.857e-6
0.025, -1.868e-6
0.024, -1.877e-6
0.023, -1.888e-6
0.022, -1.897e-6
0.021, -1.908e-6
0.020, -1.919e-6
0.019, -1.929e-6
0.018, -1.941e-6
0.017, -1.951e-6
0.016, -1.962e-6
0.015, -1.974e-6
0.014, -1.984e-6
0.013, -1.997e-6
0.012, -2.008e-6
0.011, -2.018e-6
0.010, -2.031e-6
0.009, -2.042e-6
0.008, -2.055e-6
0.007, -2.067e-6
0.006, -2.079e-6
0.005, -2.091e-6
0.004, -2.104e-6
0.003, -2.117e-6
0.002, -2.129e-6
0.001, -2.142e-6
0.000, -2.063e-6
0.001, -1.828e-6
0.002, -1.701e-6
0.003, -1.606e-6
0.004, -1.525e-6
0.005, -1.454e-6
0.006, -1.387e-6
0.007, -1.325e-6
0.008, -1.267e-6
0.009, -1.213e-6
0.010, -1.163e-6
0.011, -1.114e-6
0.012, -1.068e-6
0.013, -1.024e-6
0.014, -9.821e-7
0.015, -9.424e-7
0.016, -9.037e-7
0.017, -8.673e-7
0.018, -8.314e-7
0.019, -7.966e-7
0.020, -7.641e-7
0.021, -7.338e-7
0.022, -7.035e-7
0.023, -6.744e-7
0.024, -6.472e-7
0.025, -6.198e-7
0.026, -5.934e-7
0.027, -5.695e-7
0.028, -5.447e-7
0.029, -5.225e-7
0.030, -5.000e-7
0.031, -4.785e-7
0.032, -4.576e-7
0.033, -4.365e-7
0.034, -4.174e-7
0.035, -3.988e-7
0.036, -3.796e-7
0.037, -3.625e-7
0.038, -3.441e-7
0.039, -3.274e-7
0.040, -3.115e-7
0.041, -2.950e-7
0.042, -2.801e-7
0.043, -2.649e-7
0.044, -2.491e-7
0.045, -2.360e-7
0.046, -2.213e-7
0.047, -2.083e-7
0.048, -1.950e-7
0.049, -1.822e-7
0.050, -1.704e-7
0.051, -1.567e-7
0.052, -1.452e-7
0.053, -1.340e-7
0.054, -1.225e-7
0.055, -1.115e-7
0.056, -1.011e-7
0.057, -9.068e-8
0.058, -7.977e-8
0.059, -6.996e-8
0.060, -5.977e-8
0.061, -4.988e-8
0.062, -4.009e-8
0.063, -2.972e-8
0.064, -2.068e-8
0.065, -1.190e-8
0.066, -3.573e-9
0.067, 4.223e-9
0.068, 1.375e-8
0.069, 2.054e-8
0.070, 2.879e-8
0.071, 3.637e-8
0.072, 4.331e-8
0.073, 5.117e-8
0.074, 5.866e-8
0.075, 6.511e-8
0.076, 7.292e-8
0.077, 7.972e-8
0.078, 8.670e-8
0.079, 9.290e-8
0.080, 9.884e-8
0.081, 1.053e-7
0.082, 1.117e-7
0.083, 1.176e-7
0.084, 1.237e-7
0.085, 1.290e-7
0.086, 1.351e-7
0.087, 1.411e-7
0.088, 1.461e-7
0.089, 1.519e-7
0.090, 1.569e-7
0.091, 1.624e-7
0.092, 1.677e-7
0.093, 1.729e-7
0.094, 1.778e-7
0.095, 1.830e-7
0.096, 1.875e-7
0.097, 1.926e-7
0.098, 1.970e-7
0.099, 2.015e-7
0.100, 2.060e-7
0.101, 2.105e-7
0.102, 2.163e-7
0.103, 2.217e-7
0.104, 2.251e-7
0.105, 2.294e-7
0.106, 2.334e-7
0.107, 2.376e-7
0.108, 2.422e-7
0.109, 2.458e-7
0.110, 2.498e-7
0.111, 2.542e-7
0.112, 2.573e-7
0.113, 2.624e-7
0.114, 2.658e-7
0.115, 2.698e-7
0.116, 2.740e-7
0.117, 2.776e-7
0.118, 2.814e-7
0.119, 2.852e-7
0.120, 2.884e-7
0.121, 2.918e-7
0.122, 2.952e-7
0.123, 2.986e-7
0.124, 3.032e-7
0.125, 3.060e-7
0.126, 3.102e-7
0.127, 3.134e-7
0.128, 3.177e-7
0.129, 3.212e-7
0.130, 3.241e-7
0.131, 3.270e-7
0.132, 3.310e-7
0.133, 3.339e-7
0.134, 3.378e-7
0.135, 3.407e-7
0.136, 3.440e-7
0.137, 3.472e-7
0.138, 3.503e-7
0.139, 3.537e-7
0.140, 3.570e-7
0.141, 3.595e-7
0.142, 3.624e-7
0.143, 3.654e-7
0.144, 3.678e-7
0.145, 3.707e-7
0.146, 3.736e-7
0.147, 3.761e-7
0.148, 3.803e-7
0.149, 3.823e-7
0.150, 3.857e-7
0.151, 3.890e-7
0.152, 3.915e-7
0.153, 3.956e-7
0.154, 3.991e-7
0.155, 4.013e-7
0.156, 4.042e-7
0.157, 4.072e-7
0.158, 4.106e-7
0.159, 4.137e-7
0.160, 4.161e-7
0.161, 4.194e-7
0.162, 4.224e-7
0.163, 4.253e-7
0.164, 4.289e-7
0.165, 4.309e-7
0.166, 4.344e-7
0.167, 4.375e-7
0.168, 4.405e-7
0.169, 4.438e-7
0.170, 4.463e-7
0.171, 4.493e-7
0.172, 4.521e-7
0.173, 4.548e-7
0.174, 4.579e-7
0.175, 4.610e-7
0.176, 4.635e-7
0.177, 4.669e-7
0.178, 4.696e-7
0.179, 4.729e-7
0.180, 4.761e-7
0.181, 4.778e-7
0.182, 4.811e-7
0.183, 4.850e-7
0.184, 4.871e-7
0.185, 4.905e-7
0.186, 4.935e-7
0.187, 4.959e-7
0.188, 4.998e-7
0.189, 5.023e-7
0.190, 5.055e-7
0.191, 5.088e-7
0.192, 5.118e-7
0.193, 5.147e-7
0.194, 5.174e-7
0.195, 5.199e-7
0.196, 5.237e-7
0.197, 5.259e-7
0.198, 5.295e-7
0.199, 5.330e-7
0.200, 5.351e-7
0.201, 5.386e-7
0.202, 5.413e-7
0.203, 5.441e-7
0.204, 5.477e-7
0.205, 5.519e-7
0.206, 5.539e-7
0.207, 5.569e-7
0.208, 5.597e-7
0.209, 5.631e-7
0.210, 5.658e-7
0.211, 5.690e-7
0.212, 5.723e-7
0.213, 5.743e-7
0.214, 5.782e-7
0.215, 5.813e-7
0.216, 5.841e-7
0.217, 5.871e-7
0.218, 5.905e-7
0.219, 5.936e-7
0.220, 5.964e-7
0.221, 5.993e-7
0.222, 6.023e-7
0.223, 6.055e-7
0.224, 6.087e-7
0.225, 6.118e-7
0.226, 6.149e-7
0.227, 6.183e-7
0.228, 6.217e-7
0.229, 6.240e-7
0.230, 6.279e-7
0.231, 6.311e-7
0.232, 6.335e-7
0.233, 6.366e-7
0.234, 6.395e-7
0.235, 6.428e-7
0.236, 6.464e-7
0.237, 6.493e-7
0.238, 6.534e-7
0.239, 6.569e-7
0.240, 6.597e-7
0.241, 6.630e-7
0.242, 6.662e-7
0.243, 6.697e-7
0.244, 6.735e-7
0.245, 6.760e-7
0.246, 6.800e-7
0.247, 6.827e-7
0.248, 6.857e-7
0.249, 6.898e-7
0.250, 6.925e-7
0.251, 6.959e-7
0.252, 6.994e-7
0.253, 7.027e-7
0.254, 7.062e-7
0.255, 7.094e-7
0.256, 7.138e-7
0.257, 7.168e-7
0.258, 7.200e-7
0.259, 7.232e-7
0.260, 7.268e-7
0.261, 7.295e-7
0.262, 7.335e-7
0.263, 7.371e-7
0.264, 7.406e-7
0.265, 7.442e-7
0.266, 7.481e-7
0.267, 7.519e-7
0.268, 7.559e-7
0.269, 7.596e-7
0.270, 7.627e-7
0.271, 7.668e-7
0.272, 7.696e-7
0.273, 7.735e-7
0.274, 7.767e-7
0.275, 7.803e-7
0.276, 7.844e-7
0.277, 7.878e-7
0.278, 7.909e-7
0.279, 7.953e-7
0.280, 7.982e-7
0.281, 8.029e-7
0.282, 8.066e-7
0.283, 8.100e-7
0.284, 8.135e-7
0.285, 8.166e-7
0.286, 8.206e-7
0.287, 8.242e-7
0.288, 8.283e-7
0.289, 8.321e-7
0.290, 8.351e-7
0.291, 8.393e-7
0.292, 8.433e-7
0.293, 8.468e-7
0.294, 8.509e-7
0.295, 8.545e-7
0.296, 8.582e-7
0.297, 8.619e-7
0.298, 8.653e-7
0.299, 8.696e-7
0.300, 8.735e-7
0.301, 8.774e-7
0.302, 8.809e-7
0.303, 8.854e-7
0.304, 8.891e-7
0.305, 8.929e-7
0.306, 8.965e-7
0.307, 9.020e-7
0.308, 9.066e-7
0.309, 9.093e-7
0.310, 9.131e-7
0.311, 9.169e-7
0.312, 9.213e-7
0.313, 9.252e-7
0.314, 9.290e-7
0.315, 9.330e-7
0.316, 9.374e-7
0.317, 9.407e-7
0.318, 9.451e-7
0.319, 9.496e-7
0.320, 9.530e-7
0.321, 9.577e-7
0.322, 9.613e-7
0.323, 9.655e-7
0.324, 9.702e-7
0.325, 9.734e-7
0.326, 9.783e-7
0.327, 9.830e-7
0.328, 9.864e-7
0.329, 9.907e-7
0.330, 9.942e-7
0.331, 9.995e-7
0.332, 1.004e-6
0.333, 1.009e-6
0.334, 1.012e-6
0.335, 1.016e-6
0.336, 1.021e-6
0.337, 1.025e-6
0.338, 1.029e-6
0.339, 1.034e-6
0.340, 1.038e-6
0.341, 1.043e-6
0.342, 1.047e-6
0.343, 1.052e-6
0.344, 1.056e-6
0.345, 1.061e-6
0.346, 1.065e-6
0.347, 1.070e-6
0.348, 1.074e-6
0.349, 1.079e-6
0.350, 1.083e-6
0.351, 1.088e-6
0.352, 1.092e-6
0.353, 1.097e-6
0.354, 1.101e-6
0.355, 1.106e-6
0.356, 1.111e-6
0.357, 1.115e-6
0.358, 1.121e-6
0.359, 1.126e-6
0.360, 1.129e-6
0.361, 1.135e-6
0.362, 1.139e-6
0.363, 1.144e-6
0.364, 1.149e-6
0.365, 1.153e-6
0.366, 1.158e-6
0.367, 1.163e-6
0.368, 1.167e-6
0.369, 1.172e-6
0.370, 1.177e-6
0.371, 1.182e-6
0.372, 1.187e-6
0.373, 1.191e-6
0.374, 1.197e-6
0.375, 1.202e-6
0.376, 1.207e-6
0.377, 1.212e-6
0.378, 1.217e-6
0.379, 1.222e-6
0.380, 1.227e-6
0.381, 1.231e-6
0.382, 1.237e-6
0.383, 1.241e-6
0.384, 1.247e-6
0.385, 1.253e-6
0.386, 1.258e-6
0.387, 1.263e-6
0.388, 1.269e-6
0.389, 1.274e-6
0.390, 1.279e-6
0.391, 1.285e-6
0.392, 1.289e-6
0.393, 1.295e-6
0.394, 1.301e-6
0.395, 1.305e-6
0.396, 1.312e-6
0.397, 1.317e-6
0.398, 1.322e-6
0.399, 1.328e-6
0.400, 1.333e-6
0.401, 1.339e-6
0.402, 1.344e-6
0.403, 1.350e-6
0.404, 1.356e-6
0.405, 1.361e-6
0.406, 1.367e-6
0.407, 1.373e-6
0.408, 1.378e-6
0.409, 1.385e-6
0.410, 1.392e-6
0.411, 1.397e-6
0.412, 1.402e-6
0.413, 1.407e-6
0.414, 1.413e-6
0.415, 1.419e-6
0.416, 1.425e-6
0.417, 1.431e-6
0.418, 1.437e-6
0.419, 1.443e-6
0.420, 1.449e-6
0.421, 1.455e-6
0.422, 1.461e-6
0.423, 1.467e-6
0.424, 1.472e-6
0.425, 1.479e-6
0.426, 1.486e-6
0.427, 1.491e-6
0.428, 1.498e-6
0.429, 1.504e-6
0.430, 1.510e-6
0.431, 1.517e-6
0.432, 1.523e-6
0.433, 1.530e-6
0.434, 1.536e-6
0.435, 1.544e-6
0.436, 1.552e-6
0.437, 1.557e-6
0.438, 1.564e-6
0.439, 1.570e-6
0.440, 1.576e-6
0.441, 1.583e-6
0.442, 1.590e-6
0.443, 1.596e-6
0.444, 1.604e-6
0.445, 1.609e-6
0.446, 1.617e-6
0.447, 1.623e-6
0.448, 1.630e-6
0.449, 1.637e-6
0.450, 1.644e-6
0.451, 1.651e-6
0.452, 1.659e-6
0.453, 1.665e-6
0.454, 1.672e-6
0.455, 1.679e-6
0.456, 1.686e-6
0.457, 1.694e-6
0.458, 1.701e-6
0.459, 1.708e-6
0.460, 1.715e-6
0.461, 1.723e-6
0.462, 1.731e-6
0.463, 1.738e-6
0.464, 1.745e-6
0.465, 1.752e-6
0.466, 1.760e-6
0.467, 1.767e-6
0.468, 1.775e-6
0.469, 1.782e-6
0.470, 1.789e-6
0.471, 1.798e-6
0.472, 1.805e-6
0.473, 1.813e-6
0.474, 1.821e-6
0.475, 1.828e-6
0.476, 1.837e-6
0.477, 1.845e-6
0.478, 1.853e-6
0.479, 1.861e-6
0.480, 1.869e-6
0.481, 1.878e-6
0.482, 1.885e-6
0.483, 1.893e-6
0.484, 1.902e-6
0.485, 1.909e-6
0.486, 1.919e-6
0.487, 1.928e-6
0.488, 1.935e-6
0.489, 1.943e-6
0.490, 1.951e-6
0.491, 1.960e-6
0.492, 1.969e-6
0.493, 1.977e-6
0.494, 1.986e-6
0.495, 1.995e-6
0.496, 2.004e-6
0.497, 2.014e-6
0.498, 2.022e-6
0.499, 2.032e-6
0.500, 2.042e-6
0.501, 2.050e-6
0.502, 2.060e-6
0.503, 2.070e-6
0.504, 2.079e-6
0.505, 2.089e-6
0.506, 2.098e-6
0.507, 2.108e-6
0.508, 2.118e-6
0.509, 2.128e-6
0.510, 2.137e-6
0.511, 2.148e-6
0.512, 2.160e-6
0.513, 2.170e-6
0.514, 2.180e-6
0.515, 2.189e-6
0.516, 2.201e-6
0.517, 2.211e-6
0.518, 2.221e-6
0.519, 2.233e-6
0.520, 2.243e-6
0.521, 2.255e-6
0.522, 2.265e-6
0.523, 2.276e-6
0.524, 2.288e-6
0.525, 2.299e-6
0.526, 2.311e-6
0.527, 2.324e-6
0.528, 2.336e-6
0.529, 2.348e-6
0.530, 2.360e-6
0.531, 2.373e-6
0.532, 2.385e-6
0.533, 2.397e-6
0.534, 2.410e-6
0.535, 2.422e-6
0.536, 2.436e-6
0.537, 2.449e-6
0.538, 2.463e-6
0.539, 2.475e-6
0.540, 2.489e-6
0.541, 2.502e-6
0.542, 2.517e-6
0.543, 2.530e-6
0.544, 2.544e-6
0.545, 2.558e-6
0.546, 2.573e-6
0.547, 2.588e-6
0.548, 2.603e-6
0.549, 2.618e-6
0.550, 2.633e-6
0.551, 2.650e-6
0.552, 2.665e-6
0.553, 2.681e-6
0.554, 2.697e-6
0.555, 2.713e-6
0.556, 2.730e-6
0.557, 2.747e-6
0.558, 2.764e-6
0.559, 2.781e-6
0.560, 2.798e-6
0.561, 2.817e-6
0.562, 2.835e-6
0.563, 2.855e-6
0.564, 2.874e-6
0.565, 2.893e-6
0.566, 2.913e-6
0.567, 2.933e-6
0.568, 2.952e-6
0.569, 2.974e-6
0.570, 2.994e-6
0.571, 3.016e-6
0.572, 3.038e-6
0.573, 3.060e-6
0.574, 3.083e-6
0.575, 3.106e-6
0.576, 3.131e-6
0.577, 3.155e-6
0.578, 3.179e-6
0.579, 3.204e-6
0.580, 3.229e-6
0.581, 3.256e-6
0.582, 3.282e-6
0.583, 3.308e-6
0.584, 3.335e-6
0.585, 3.363e-6
0.586, 3.392e-6
0.587, 3.420e-6
0.588, 3.450e-6
0.589, 3.482e-6
0.590, 3.511e-6
0.591, 3.541e-6
0.592, 3.573e-6
0.593, 3.605e-6
0.594, 3.639e-6
0.595, 3.673e-6
0.596, 3.709e-6
0.597, 3.744e-6
0.598, 3.780e-6
0.599, 3.818e-6
0.600, 3.855e-6
0.601, 3.896e-6
0.602, 3.937e-6
0.603, 3.977e-6
0.604, 4.019e-6
0.605, 4.061e-6
0.606, 4.105e-6
0.607, 4.150e-6
0.608, 4.195e-6
0.609, 4.242e-6
0.610, 4.289e-6
0.611, 4.338e-6
0.612, 4.388e-6
0.613, 4.439e-6
0.614, 4.493e-6
0.615, 4.547e-6
0.616, 4.602e-6
0.617, 4.658e-6
0.618, 4.717e-6
0.619, 4.777e-6
0.620, 4.836e-6
0.621, 4.898e-6
0.622, 4.962e-6
0.623, 5.026e-6
0.624, 5.091e-6
0.625, 5.159e-6
0.626, 5.228e-6
0.627, 5.300e-6
0.628, 5.373e-6
0.629, 5.447e-6
0.630, 5.525e-6
0.631, 5.604e-6
0.632, 5.684e-6
0.633, 5.767e-6
0.634, 5.850e-6
0.635, 5.935e-6
0.636, 6.025e-6
0.637, 6.114e-6
0.638, 6.207e-6
0.639, 6.304e-6
0.640, 6.402e-6
0.641, 6.502e-6
0.642, 6.603e-6
0.643, 6.704e-6
0.644, 6.812e-6
0.645, 6.919e-6
0.646, 7.033e-6
0.647, 7.148e-6
0.648, 7.264e-6
0.649, 7.384e-6
0.650, 7.505e-6
0.651, 7.631e-6
0.652, 7.759e-6
0.653, 7.891e-6
0.654, 8.026e-6
0.655, 8.162e-6
0.656, 8.300e-6
0.657, 8.443e-6
0.658, 8.590e-6
0.659, 8.741e-6
0.660, 8.893e-6
0.661, 9.049e-6
0.662, 9.208e-6
0.663, 9.371e-6
0.664, 9.539e-6
0.665, 9.709e-6
0.666, 9.882e-6
0.667, 1.006e-5
0.668, 1.024e-5
0.669, 1.043e-5
0.670, 1.061e-5
0.671, 1.081e-5
0.672, 1.100e-5
0.673, 1.120e-5
0.674, 1.140e-5
0.675, 1.161e-5
0.676, 1.182e-5
0.677, 1.204e-5
0.678, 1.226e-5
0.679, 1.249e-5
0.680, 1.271e-5
0.681, 1.295e-5
0.682, 1.318e-5
0.683, 1.342e-5
0.684, 1.367e-5
0.685, 1.392e-5
0.686, 1.417e-5
0.687, 1.443e-5
0.688, 1.469e-5
0.689, 1.496e-5
0.690, 1.523e-5
0.691, 1.551e-5
0.692, 1.580e-5
0.693, 1.608e-5
0.694, 1.637e-5
0.695, 1.667e-5
0.696, 1.697e-5
0.697, 1.727e-5
0.698, 1.758e-5
0.699, 1.789e-5
0.700, 1.821e-5
0.701, 1.853e-5
0.702, 1.886e-5
0.703, 1.919e-5
0.704, 1.953e-5
0.705, 1.987e-5
0.706, 2.022e-5
0.707, 2.057e-5
0.708, 2.093e-5
0.709, 2.129e-5
0.710, 2.165e-5
0.711, 2.202e-5
0.712, 2.240e-5
0.713, 2.278e-5
0.714, 2.316e-5
0.715, 2.355e-5
0.716, 2.394e-5
0.717, 2.435e-5
0.718, 2.475e-5
0.719, 2.516e-5
0.720, 2.557e-5
0.721, 2.599e-5
0.722, 2.641e-5
0.723, 2.683e-5
0.724, 2.726e-5
0.725, 2.770e-5
0.726, 2.814e-5
0.727, 2.858e-5
0.728, 2.903e-5
0.729, 2.948e-5
0.730, 2.994e-5
0.731, 3.040e-5
0.732, 3.086e-5
0.733, 3.133e-5
0.734, 3.181e-5
0.735, 3.228e-5
0.736, 3.277e-5
0.737, 3.325e-5
0.738, 3.374e-5
0.739, 3.424e-5
0.740, 3.474e-5
0.741, 3.524e-5
0.742, 3.575e-5
0.743, 3.626e-5
0.744, 3.677e-5
0.745, 3.729e-5
0.746, 3.781e-5
0.747, 3.834e-5
0.748, 3.887e-5
0.749, 3.940e-5
0.750, 3.994e-5
0.751, 4.048e-5
0.752, 4.103e-5
0.753, 4.157e-5
0.754, 4.212e-5
0.755, 4.268e-5
0.756, 4.324e-5
0.757, 4.380e-5
0.758, 4.436e-5
0.759, 4.493e-5
0.760, 4.550e-5
0.761, 4.608e-5
0.762, 4.665e-5
0.763, 4.724e-5
0.764, 4.782e-5
0.765, 4.841e-5
0.766, 4.900e-5
0.767, 4.959e-5
0.768, 5.019e-5
0.769, 5.079e-5
0.770, 5.139e-5
0.771, 5.200e-5
0.772, 5.260e-5
0.773, 5.321e-5
0.774, 5.383e-5
0.775, 5.444e-5
0.776, 5.505e-5
0.777, 5.567e-5
0.778, 5.630e-5
0.779, 5.692e-5
0.780, 5.755e-5
0.781, 5.818e-5
0.782, 5.881e-5
0.783, 5.944e-5
0.784, 6.008e-5
0.785, 6.072e-5
0.786, 6.136e-5
0.787, 6.200e-5
0.788, 6.264e-5
0.789, 6.329e-5
0.790, 6.394e-5
0.791, 6.459e-5
0.792, 6.524e-5
0.793, 6.590e-5
0.794, 6.656e-5
0.795, 6.722e-5
0.796, 6.789e-5
0.797, 6.855e-5
0.798, 6.922e-5
0.799, 6.989e-5
0.800, 7.036e-5
0.799, 6.982e-5
0.798, 6.892e-5
0.797, 6.799e-5
0.796, 6.707e-5
0.795, 6.615e-5
0.794, 6.525e-5
0.793, 6.436e-5
0.792, 6.348e-5
0.791, 6.261e-5
0.790, 6.174e-5
0.789, 6.089e-5
0.788, 6.005e-5
0.787, 5.921e-5
0.786, 5.839e-5
0.785, 5.757e-5
0.784, 5.676e-5
0.783, 5.596e-5
0.782, 5.516e-5
0.781, 5.438e-5
0.780, 5.360e-5
0.779, 5.283e-5
0.778, 5.206e-5
0.777, 5.131e-5
0.776, 5.056e-5
0.775, 4.981e-5
0.774, 4.908e-5
0.773, 4.835e-5
0.772, 4.763e-5
0.771, 4.692e-5
0.770, 4.621e-5
0.769, 4.551e-5
0.768, 4.482e-5
0.767, 4.413e-5
0.766, 4.345e-5
0.765, 4.278e-5
0.764, 4.211e-5
0.763, 4.145e-5
0.762, 4.080e-5
0.761, 4.015e-5
0.760, 3.951e-5
0.759, 3.888e-5
0.758, 3.825e-5
0.757, 3.763e-5
0.756, 3.702e-5
0.755, 3.641e-5
0.754, 3.581e-5
0.753, 3.522e-5
0.752, 3.463e-5
0.751, 3.405e-5
0.750, 3.347e-5
0.749, 3.291e-5
0.748, 3.234e-5
0.747, 3.179e-5
0.746, 3.124e-5
0.745, 3.069e-5
0.744, 3.016e-5
0.743, 2.962e-5
0.742, 2.910e-5
0.741, 2.858e-5
0.740, 2.806e-5
0.739, 2.756e-5
0.738, 2.706e-5
0.737, 2.656e-5
0.736, 2.607e-5
0.735, 2.559e-5
0.734, 2.511e-5
0.733, 2.464e-5
0.732, 2.418e-5
0.731, 2.372e-5
0.730, 2.327e-5
0.729, 2.282e-5
0.728, 2.238e-5
0.727, 2.194e-5
0.726, 2.152e-5
0.725, 2.109e-5
0.724, 2.067e-5
0.723, 2.026e-5
0.722, 1.986e-5
0.721, 1.946e-5
0.720, 1.906e-5
0.719, 1.867e-5
0.718, 1.829e-5
0.717, 1.791e-5
0.716, 1.754e-5
0.715, 1.717e-5
0.714, 1.681e-5
0.713, 1.645e-5
0.712, 1.610e-5
0.711, 1.576e-5
0.710, 1.542e-5
0.709, 1.509e-5
0.708, 1.476e-5
0.707, 1.444e-5
0.706, 1.412e-5
0.705, 1.381e-5
0.704, 1.350e-5
0.703, 1.320e-5
0.702, 1.290e-5
0.701, 1.261e-5
0.700, 1.232e-5
0.699, 1.204e-5
0.698, 1.177e-5
0.697, 1.150e-5
0.696, 1.123e-5
0.695, 1.097e-5
0.694, 1.071e-5
0.693, 1.046e-5
0.692, 1.021e-5
0.691, 9.966e-6
0.690, 9.730e-6
0.689, 9.497e-6
0.688, 9.267e-6
0.687, 9.042e-6
0.686, 8.823e-6
0.685, 8.606e-6
0.684, 8.395e-6
0.683, 8.190e-6
0.682, 7.986e-6
0.681, 7.787e-6
0.680, 7.591e-6
0.679, 7.402e-6
0.678, 7.215e-6
0.677, 7.031e-6
0.676, 6.853e-6
0.675, 6.679e-6
0.674, 6.509e-6
0.673, 6.342e-6
0.672, 6.176e-6
0.671, 6.016e-6
0.670, 5.860e-6
0.669, 5.707e-6
0.668, 5.558e-6
0.667, 5.411e-6
0.666, 5.267e-6
0.665, 5.127e-6
0.664, 4.993e-6
0.663, 4.860e-6
0.662, 4.730e-6
0.661, 4.602e-6
0.660, 4.478e-6
0.659, 4.358e-6
0.658, 4.240e-6
0.657, 4.125e-6
0.656, 4.013e-6
0.655, 3.901e-6
0.654, 3.795e-6
0.653, 3.690e-6
0.652, 3.588e-6
0.651, 3.491e-6
0.650, 3.395e-6
0.649, 3.301e-6
0.648, 3.210e-6
0.647, 3.118e-6
0.646, 3.031e-6
0.645, 2.945e-6
0.644, 2.862e-6
0.643, 2.782e-6
0.642, 2.703e-6
0.641, 2.628e-6
0.640, 2.552e-6
0.639, 2.479e-6
0.638, 2.409e-6
0.637, 2.339e-6
0.636, 2.271e-6
0.635, 2.206e-6
0.634, 2.142e-6
0.633, 2.081e-6
0.632, 2.020e-6
0.631, 1.962e-6
0.630, 1.907e-6
0.629, 1.851e-6
0.628, 1.797e-6
0.627, 1.744e-6
0.626, 1.694e-6
0.625, 1.644e-6
0.624, 1.596e-6
0.623, 1.548e-6
0.622, 1.501e-6
0.621, 1.456e-6
0.620, 1.413e-6
0.619, 1.371e-6
0.618, 1.330e-6
0.617, 1.290e-6
0.616, 1.251e-6
0.615, 1.212e-6
0.614, 1.175e-6
0.613, 1.141e-6
0.612, 1.106e-6
0.611, 1.073e-6
0.610, 1.040e-6
0.609, 1.008e-6
0.608, 9.769e-7
0.607, 9.463e-7
0.606, 9.177e-7
0.605, 8.886e-7
0.604, 8.604e-7
0.603, 8.341e-7
0.602, 8.070e-7
0.601, 7.820e-7
0.600, 7.564e-7
0.599, 7.310e-7
0.598, 7.075e-7
0.597, 6.841e-7
0.596, 6.621e-7
0.595, 6.401e-7
0.594, 6.190e-7
0.593, 5.987e-7
0.592, 5.783e-7
0.591, 5.588e-7
0.590, 5.401e-7
0.589, 5.208e-7
0.588, 5.024e-7
0.587, 4.854e-7
0.586, 4.682e-7
0.585, 4.522e-7
0.584, 4.355e-7
0.583, 4.199e-7
0.582, 4.041e-7
0.581, 3.895e-7
0.580, 3.750e-7
0.579, 3.626e-7
0.578, 3.493e-7
0.577, 3.356e-7
0.576, 3.224e-7
0.575, 3.085e-7
0.574, 2.971e-7
0.573, 2.846e-7
0.572, 2.723e-7
0.571, 2.617e-7
0.570, 2.497e-7
0.569, 2.387e-7
0.568, 2.284e-7
0.567, 2.172e-7
0.566, 2.071e-7
0.565, 1.967e-7
0.564, 1.864e-7
0.563, 1.769e-7
0.562, 1.675e-7
0.561, 1.586e-7
0.560, 1.497e-7
0.559, 1.409e-7
0.558, 1.331e-7
0.557, 1.238e-7
0.556, 1.156e-7
0.555, 1.078e-7
0.554, 9.984e-8
0.553, 9.235e-8
0.552, 8.435e-8
0.551, 7.677e-8
0.550, 6.993e-8
0.549, 6.283e-8
0.548, 5.537e-8
0.547, 4.912e-8
0.546, 4.242e-8
0.545, 3.568e-8
0.544, 2.968e-8
0.543, 2.270e-8
0.542, 1.695e-8
0.541, 1.093e-8
0.540, 4.578e-9
0.539, -5.808e-10
0.538, -7.334e-9
0.537, -1.359e-8
0.536, -1.803e-8
0.535, -2.380e-8
0.534, -2.867e-8
0.533, -3.440e-8
0.532, -4.055e-8
0.531, -4.549e-8
0.530, -5.076e-8
0.529, -5.542e-8
0.528, -6.058e-8
0.527, -6.670e-8
0.526, -7.053e-8
0.525, -7.560e-8
0.524, -8.054e-8
0.523, -8.439e-8
0.522, -8.907e-8
0.521, -9.283e-8
0.520, -9.736e-8
0.519, -1.019e-7
0.518, -1.057e-7
0.517, -1.101e-7
0.516, -1.143e-7
0.515, -1.176e-7
0.514, -1.221e-7
0.513, -1.252e-7
0.512, -1.314e-7
0.511, -1.344e-7
0.510, -1.371e-7
0.509, -1.410e-7
0.508, -1.449e-7
0.507, -1.481e-7
0.506, -1.517e-7
0.505, -1.548e-7
0.504, -1.585e-7
0.503, -1.625e-7
0.502, -1.654e-7
0.501, -1.686e-7
0.500, -1.720e-7
0.499, -1.754e-7
0.498, -1.792e-7
0.497, -1.824e-7
0.496, -1.852e-7
0.495, -1.883e-7
0.494, -1.914e-7
0.493, -1.948e-7
0.492, -1.980e-7
0.491, -2.003e-7
0.490, -2.038e-7
0.489, -2.067e-7
0.488, -2.098e-7
0.487, -2.135e-7
0.486, -2.165e-7
0.485, -2.196e-7
0.484, -2.229e-7
0.483, -2.248e-7
0.482, -2.287e-7
0.481, -2.307e-7
0.480, -2.335e-7
0.479, -2.367e-7
0.478, -2.388e-7
0.477, -2.412e-7
0.476, -2.436e-7
0.475, -2.459e-7
0.474, -2.494e-7
0.473, -2.515e-7
0.472, -2.544e-7
0.471, -2.577e-7
0.470, -2.600e-7
0.469, -2.626e-7
0.468, -2.652e-7
0.467, -2.677e-7
0.466, -2.701e-7
0.465, -2.729e-7
0.464, -2.752e-7
0.463, -2.778e-7
0.462, -2.806e-7
0.461, -2.834e-7
0.460, -2.862e-7
0.459, -2.878e-7
0.458, -2.908e-7
0.457, -2.931e-7
0.456, -2.949e-7
0.455, -2.980e-7
0.454, -3.001e-7
0.453, -3.022e-7
0.452, -3.052e-7
0.451, -3.071e-7
0.450, -3.101e-7
0.449, -3.122e-7
0.448, -3.147e-7
0.447, -3.182e-7
0.446, -3.188e-7
0.445, -3.216e-7
0.444, -3.243e-7
0.443, -3.264e-7
0.442, -3.296e-7
0.441, -3.306e-7
0.440, -3.337e-7
0.439, -3.366e-7
0.438, -3.380e-7
0.437, -3.408e-7
0.436, -3.433e-7
0.435, -3.461e-7
0.434, -3.484e-7
0.433, -3.501e-7
0.432, -3.527e-7
0.431, -3.548e-7
0.430, -3.563e-7
0.429, -3.591e-7
0.428, -3.617e-7
0.427, -3.634e-7
0.426, -3.660e-7
0.425, -3.686e-7
0.424, -3.704e-7
0.423, -3.731e-7
0.422, -3.754e-7
0.421, -3.776e-7
0.420, -3.805e-7
0.419, -3.821e-7
0.418, -3.840e-7
0.417, -3.864e-7
0.416, -3.885e-7
0.415, -3.916e-7
0.414, -3.938e-7
0.413, -3.951e-7
0.412, -3.979e-7
0.411, -3.992e-7
0.410, -4.040e-7
0.409, -4.069e-7
0.408, -4.076e-7
0.407, -4.100e-7
0.406, -4.108e-7
0.405, -4.137e-7
0.404, -4.160e-7
0.403, -4.175e-7
0.402, -4.204e-7
0.401, -4.219e-7
0.400, -4.243e-7
0.399, -4.269e-7
0.398, -4.283e-7
0.397, -4.312e-7
0.396, -4.329e-7
0.395, -4.348e-7
0.394, -4.378e-7
0.393, -4.395e-7
0.392, -4.418e-7
0.391, -4.439e-7
0.390, -4.457e-7
0.389, -4.482e-7
0.388, -4.505e-7
0.387, -4.529e-7
0.386, -4.552e-7
0.385, -4.574e-7
0.384, -4.607e-7
0.383, -4.630e-7
0.382, -4.641e-7
0.381, -4.664e-7
0.380, -4.688e-7
0.379, -4.706e-7
0.378, -4.733e-7
0.377, -4.756e-7
0.376, -4.771e-7
0.375, -4.800e-7
0.374, -4.817e-7
0.373, -4.840e-7
0.372, -4.869e-7
0.371, -4.889e-7
0.370, -4.911e-7
0.369, -4.938e-7
0.368, -4.961e-7
0.367, -4.990e-7
0.366, -4.999e-7
0.365, -5.028e-7
0.364, -5.054e-7
0.363, -5.068e-7
0.362, -5.093e-7
0.361, -5.106e-7
0.360, -5.132e-7
0.359, -5.161e-7
0.358, -5.187e-7
0.357, -5.210e-7
0.356, -5.222e-7
0.355, -5.244e-7
0.354, -5.271e-7
0.353, -5.290e-7
0.352, -5.317e-7
0.351, -5.340e-7
0.350, -5.357e-7
0.349, -5.384e-7
0.348, -5.409e-7
0.347, -5.429e-7
0.346, -5.451e-7
0.345, -5.477e-7
0.344, -5.500e-7
0.343, -5.523e-7
0.342, -5.542e-7
0.341, -5.562e-7
0.340, -5.592e-7
0.339, -5.616e-7
0.338, -5.634e-7
0.337, -5.664e-7
0.336, -5.679e-7
0.335, -5.711e-7
0.334, -5.728e-7
0.333, -5.763e-7
0.332, -5.788e-7
0.331, -5.800e-7
0.330, -5.823e-7
0.329, -5.852e-7
0.328, -5.866e-7
0.327, -5.898e-7
0.326, -5.918e-7
0.325, -5.943e-7
0.324, -5.975e-7
0.323, -5.987e-7
0.322, -6.014e-7
0.321, -6.033e-7
0.320, -6.060e-7
0.319, -6.091e-7
0.318, -6.102e-7
0.317, -6.133e-7
0.316, -6.152e-7
0.315, -6.177e-7
0.314, -6.206e-7
0.313, -6.227e-7
0.312, -6.252e-7
0.311, -6.278e-7
0.310, -6.295e-7
0.309, -6.326e-7
0.308, -6.347e-7
0.307, -6.393e-7
0.306, -6.401e-7
0.305, -6.423e-7
0.304, -6.446e-7
0.303, -6.471e-7
0.302, -6.498e-7
0.301, -6.518e-7
0.300, -6.543e-7
0.299, -6.570e-7
0.298, -6.598e-7
0.297, -6.624e-7
0.296, -6.641e-7
0.295, -6.674e-7
0.294, -6.695e-7
0.293, -6.723e-7
0.292, -6.750e-7
0.291, -6.767e-7
0.290, -6.795e-7
0.289, -6.822e-7
0.288, -6.846e-7
0.287, -6.876e-7
0.286, -6.892e-7
0.285, -6.922e-7
0.284, -6.949e-7
0.283, -6.965e-7
0.282, -7.008e-7
0.281, -7.029e-7
0.280, -7.058e-7
0.279, -7.082e-7
0.278, -7.098e-7
0.277, -7.132e-7
0.276, -7.152e-7
0.275, -7.182e-7
0.274, -7.209e-7
0.273, -7.237e-7
0.272, -7.263e-7
0.271, -7.296e-7
0.270, -7.309e-7
0.269, -7.344e-7
0.268, -7.368e-7
0.267, -7.394e-7
0.266, -7.417e-7
0.265, -7.446e-7
0.264, -7.472e-7
0.263, -7.501e-7
0.262, -7.528e-7
0.261, -7.551e-7
0.260, -7.578e-7
0.259, -7.606e-7
0.258, -7.636e-7
0.257, -7.666e-7
0.256, -7.690e-7
0.255, -7.719e-7
0.254, -7.746e-7
0.253, -7.774e-7
0.252, -7.804e-7
0.251, -7.823e-7
0.250, -7.860e-7
0.249, -7.885e-7
0.248, -7.908e-7
0.247, -7.943e-7
0.246, -7.963e-7
0.245, -7.997e-7
0.244, -8.027e-7
0.243, -8.050e-7
0.242, -8.085e-7
0.241, -8.104e-7
0.240, -8.139e-7
0.239, -8.169e-7
0.238, -8.190e-7
0.237, -8.232e-7
0.236, -8.263e-7
0.235, -8.288e-7
0.234, -8.322e-7
0.233, -8.353e-7
0.232, -8.383e-7
0.231, -8.413e-7
0.230, -8.449e-7
0.229, -8.476e-7
0.228, -8.505e-7
0.227, -8.537e-7
0.226, -8.561e-7
0.225, -8.592e-7
0.224, -8.626e-7
0.223, -8.657e-7
0.222, -8.682e-7
0.221, -8.713e-7
0.220, -8.749e-7
0.219, -8.779e-7
0.218, -8.817e-7
0.217, -8.847e-7
0.216, -8.872e-7
0.215, -8.903e-7
0.214, -8.925e-7
0.213, -8.955e-7
0.212, -8.995e-7
0.211, -9.018e-7
0.210, -9.053e-7
0.209, -9.079e-7
0.208, -9.113e-7
0.207, -9.149e-7
0.206, -9.176e-7
0.205, -9.217e-7
0.204, -9.252e-7
0.203, -9.273e-7
0.202, -9.316e-7
0.201, -9.337e-7
0.200, -9.370e-7
0.199, -9.409e-7
0.198, -9.433e-7
0.197, -9.469e-7
0.196, -9.500e-7
0.195, -9.534e-7
0.194, -9.568e-7
0.193, -9.604e-7
0.192, -9.638e-7
0.191, -9.671e-7
0.190, -9.699e-7
0.189, -9.734e-7
0.188, -9.770e-7
0.187, -9.804e-7
0.186, -9.835e-7
0.185, -9.871e-7
0.184, -9.903e-7
0.183, -9.944e-7
0.182, -9.975e-7
0.181, -1.000e-6
0.180, -1.004e-6
0.179, -1.009e-6
0.178, -1.011e-6
0.177, -1.015e-6
0.176, -1.017e-6
0.175, -1.022e-6
0.174, -1.025e-6
0.173, -1.029e-6
0.172, -1.033e-6
0.171, -1.035e-6
0.170, -1.039e-6
0.169, -1.043e-6
0.168, -1.046e-6
0.167, -1.051e-6
0.166, -1.054e-6
0.165, -1.058e-6
0.164, -1.062e-6
0.163, -1.065e-6
0.162, -1.069e-6
0.161, -1.072e-6
0.160, -1.077e-6
0.159, -1.081e-6
0.158, -1.084e-6
0.157, -1.088e-6
0.156, -1.091e-6
0.155, -1.095e-6
0.154, -1.100e-6
0.153, -1.104e-6
0.152, -1.107e-6
0.151, -1.111e-6
0.150, -1.115e-6
0.149, -1.119e-6
0.148, -1.123e-6
0.147, -1.127e-6
0.146, -1.131e-6
0.145, -1.135e-6
0.144, -1.139e-6
0.143, -1.143e-6
0.142, -1.147e-6
0.141, -1.151e-6
0.140, -1.156e-6
0.139, -1.159e-6
0.138, -1.164e-6
0.137, -1.168e-6
0.136, -1.172e-6
0.135, -1.177e-6
0.134, -1.180e-6
0.133, -1.185e-6
0.132, -1.189e-6
0.131, -1.193e-6
0.130, -1.198e-6
0.129, -1.202e-6
0.128, -1.207e-6
0.127, -1.211e-6
0.126, -1.214e-6
0.125, -1.218e-6
0.124, -1.223e-6
0.123, -1.226e-6
0.122, -1.232e-6
0.121, -1.236e-6
0.120, -1.240e-6
0.119, -1.246e-6
0.118, -1.250e-6
0.117, -1.255e-6
0.116, -1.260e-6
0.115, -1.264e-6
0.114, -1.269e-6
0.113, -1.274e-6
0.112, -1.279e-6
0.111, -1.283e-6
0.110, -1.288e-6
0.109, -1.293e-6
0.108, -1.298e-6
0.107, -1.303e-6
0.106, -1.308e-6
0.105, -1.313e-6
0.104, -1.318e-6
0.103, -1.324e-6
0.102, -1.330e-6
0.101, -1.334e-6
0.100, -1.340e-6
0.099, -1.344e-6
0.098, -1.350e-6
0.097, -1.355e-6
0.096, -1.361e-6
0.095, -1.367e-6
0.094, -1.371e-6
0.093, -1.379e-6
0.092, -1.384e-6
0.091, -1.388e-6
0.090, -1.394e-6
0.089, -1.400e-6
0.088, -1.405e-6
0.087, -1.412e-6
0.086, -1.416e-6
0.085, -1.423e-6
0.084, -1.429e-6
0.083, -1.434e-6
0.082, -1.441e-6
0.081, -1.446e-6
0.080, -1.453e-6
0.079, -1.459e-6
0.078, -1.465e-6
0.077, -1.472e-6
0.076, -1.478e-6
0.075, -1.484e-6
0.074, -1.491e-6
0.073, -1.497e-6
0.072, -1.504e-6
0.071, -1.511e-6
0.070, -1.517e-6
0.069, -1.524e-6
0.068, -1.531e-6
0.067, -1.537e-6
0.066, -1.545e-6
0.065, -1.552e-6
0.064, -1.559e-6
0.063, -1.566e-6
0.062, -1.573e-6
0.061, -1.580e-6
0.060, -1.588e-6
0.059, -1.595e-6
0.058, -1.603e-6
0.057, -1.612e-6
0.056, -1.619e-6
0.055, -1.628e-6
0.054, -1.635e-6
0.053, -1.643e-6
0.052, -1.652e-6
0.051, -1.660e-6
0.050, -1.669e-6
0.049, -1.676e-6
0.048, -1.684e-6
0.047, -1.693e-6
0.046, -1.701e-6
0.045, -1.710e-6
0.044, -1.719e-6
0.043, -1.727e-6
0.042, -1.736e-6
0.041, -1.745e-6
0.040, -1.753e-6
0.039, -1.764e-6
0.038, -1.772e-6
0.037, -1.782e-6
0.036, -1.791e-6
0.035, -1.800e-6
0.034, -1.810e-6
0.033, -1.819e-6
0.032, -1.829e-6
0.031, -1.840e-6
0.030, -1.849e-6
0.029, -1.860e-6
0.028, -1.870e-6
0.027, -1.880e-6
0.026, -1.891e-6
0.025, -1.902e-6
0.024, -1.912e-6
0.023, -1.923e-6
0.022, -1.934e-6
0.021, -1.944e-6
0.020, -1.956e-6
0.019, -1.967e-6
0.018, -1.978e-6
0.017, -1.990e-6
0.016, -2.001e-6
0.015, -2.013e-6
0.014, -2.024e-6
0.013, -2.036e-6
0.012, -2.048e-6
0.011, -2.060e-6
0.010, -2.073e-6
0.009, -2.085e-6
0.008, -2.097e-6
0.007, -2.111e-6
0.006, -2.122e-6
0.005, -2.136e-6
0.004, -2.149e-6
0.003, -2.162e-6
0.002, -2.176e-6
0.001, -2.189e-6
