Mar. 17, 2023   21:15:39
Cyclic Voltammetry
File: f:\ch3cooh\20230317\5mm-pt-cv-1.csv
Data Source:  Experiment
Instrument Model:  CHI760E
Header: 
Note: 

Init E (V) = 0
High E (V) = 0.8
Low E (V) = 0
Init P/N = P
Scan Rate (V/s) = 0.1
Segment = 4
Sample Interval (V) = 0.001
Quiet Time (sec) = 2
Sensitivity (A/V) = 1e-5

Results:

Channel 1:
Segment 1:

Segment 2:

Segment 3:

Segment 4:

Potential/V, Current/A

0.000, -5.433e-7
0.001, -4.452e-7
0.002, -4.052e-7
0.003, -3.794e-7
0.004, -3.583e-7
0.005, -3.391e-7
0.006, -3.213e-7
0.007, -3.046e-7
0.008, -2.897e-7
0.009, -2.734e-7
0.010, -2.595e-7
0.011, -2.459e-7
0.012, -2.321e-7
0.013, -2.192e-7
0.014, -2.066e-7
0.015, -1.938e-7
0.016, -1.828e-7
0.017, -1.707e-7
0.018, -1.600e-7
0.019, -1.483e-7
0.020, -1.375e-7
0.021, -1.274e-7
0.022, -1.176e-7
0.023, -1.072e-7
0.024, -9.768e-8
0.025, -8.729e-8
0.026, -7.813e-8
0.027, -6.935e-8
0.028, -5.961e-8
0.029, -5.074e-8
0.030, -4.228e-8
0.031, -3.274e-8
0.032, -2.451e-8
0.033, -1.652e-8
0.034, -8.367e-9
0.035, -1.142e-9
0.036, 7.019e-9
0.037, 1.354e-8
0.038, 2.133e-8
0.039, 2.890e-8
0.040, 3.502e-8
0.041, 4.187e-8
0.042, 4.849e-8
0.043, 5.507e-8
0.044, 6.169e-8
0.045, 6.763e-8
0.046, 7.391e-8
0.047, 8.020e-8
0.048, 8.574e-8
0.049, 9.200e-8
0.050, 9.741e-8
0.051, 1.037e-7
0.052, 1.097e-7
0.053, 1.141e-7
0.054, 1.197e-7
0.055, 1.248e-7
0.056, 1.290e-7
0.057, 1.347e-7
0.058, 1.391e-7
0.059, 1.444e-7
0.060, 1.495e-7
0.061, 1.534e-7
0.062, 1.584e-7
0.063, 1.633e-7
0.064, 1.675e-7
0.065, 1.723e-7
0.066, 1.760e-7
0.067, 1.805e-7
0.068, 1.848e-7
0.069, 1.887e-7
0.070, 1.928e-7
0.071, 1.971e-7
0.072, 2.006e-7
0.073, 2.042e-7
0.074, 2.078e-7
0.075, 2.115e-7
0.076, 2.159e-7
0.077, 2.201e-7
0.078, 2.230e-7
0.079, 2.265e-7
0.080, 2.299e-7
0.081, 2.334e-7
0.082, 2.365e-7
0.083, 2.397e-7
0.084, 2.434e-7
0.085, 2.460e-7
0.086, 2.494e-7
0.087, 2.528e-7
0.088, 2.555e-7
0.089, 2.591e-7
0.090, 2.621e-7
0.091, 2.650e-7
0.092, 2.681e-7
0.093, 2.705e-7
0.094, 2.738e-7
0.095, 2.769e-7
0.096, 2.791e-7
0.097, 2.822e-7
0.098, 2.848e-7
0.099, 2.872e-7
0.100, 2.904e-7
0.101, 2.924e-7
0.102, 2.958e-7
0.103, 2.988e-7
0.104, 3.009e-7
0.105, 3.034e-7
0.106, 3.057e-7
0.107, 3.083e-7
0.108, 3.111e-7
0.109, 3.129e-7
0.110, 3.156e-7
0.111, 3.180e-7
0.112, 3.201e-7
0.113, 3.227e-7
0.114, 3.248e-7
0.115, 3.274e-7
0.116, 3.297e-7
0.117, 3.321e-7
0.118, 3.343e-7
0.119, 3.372e-7
0.120, 3.390e-7
0.121, 3.411e-7
0.122, 3.435e-7
0.123, 3.457e-7
0.124, 3.481e-7
0.125, 3.496e-7
0.126, 3.523e-7
0.127, 3.544e-7
0.128, 3.571e-7
0.129, 3.592e-7
0.130, 3.607e-7
0.131, 3.623e-7
0.132, 3.645e-7
0.133, 3.658e-7
0.134, 3.676e-7
0.135, 3.697e-7
0.136, 3.712e-7
0.137, 3.735e-7
0.138, 3.753e-7
0.139, 3.772e-7
0.140, 3.798e-7
0.141, 3.813e-7
0.142, 3.837e-7
0.143, 3.862e-7
0.144, 3.879e-7
0.145, 3.900e-7
0.146, 3.919e-7
0.147, 3.941e-7
0.148, 3.963e-7
0.149, 3.982e-7
0.150, 4.004e-7
0.151, 4.022e-7
0.152, 4.043e-7
0.153, 4.068e-7
0.154, 4.092e-7
0.155, 4.112e-7
0.156, 4.128e-7
0.157, 4.149e-7
0.158, 4.171e-7
0.159, 4.188e-7
0.160, 4.204e-7
0.161, 4.229e-7
0.162, 4.253e-7
0.163, 4.269e-7
0.164, 4.297e-7
0.165, 4.313e-7
0.166, 4.338e-7
0.167, 4.361e-7
0.168, 4.380e-7
0.169, 4.406e-7
0.170, 4.421e-7
0.171, 4.445e-7
0.172, 4.473e-7
0.173, 4.489e-7
0.174, 4.508e-7
0.175, 4.537e-7
0.176, 4.554e-7
0.177, 4.578e-7
0.178, 4.599e-7
0.179, 4.626e-7
0.180, 4.655e-7
0.181, 4.667e-7
0.182, 4.692e-7
0.183, 4.715e-7
0.184, 4.735e-7
0.185, 4.759e-7
0.186, 4.781e-7
0.187, 4.805e-7
0.188, 4.833e-7
0.189, 4.853e-7
0.190, 4.877e-7
0.191, 4.899e-7
0.192, 4.925e-7
0.193, 4.948e-7
0.194, 4.971e-7
0.195, 4.994e-7
0.196, 5.026e-7
0.197, 5.047e-7
0.198, 5.073e-7
0.199, 5.105e-7
0.200, 5.121e-7
0.201, 5.148e-7
0.202, 5.175e-7
0.203, 5.198e-7
0.204, 5.224e-7
0.205, 5.267e-7
0.206, 5.282e-7
0.207, 5.316e-7
0.208, 5.330e-7
0.209, 5.366e-7
0.210, 5.387e-7
0.211, 5.414e-7
0.212, 5.445e-7
0.213, 5.470e-7
0.214, 5.499e-7
0.215, 5.529e-7
0.216, 5.550e-7
0.217, 5.591e-7
0.218, 5.615e-7
0.219, 5.641e-7
0.220, 5.673e-7
0.221, 5.697e-7
0.222, 5.731e-7
0.223, 5.762e-7
0.224, 5.785e-7
0.225, 5.825e-7
0.226, 5.847e-7
0.227, 5.882e-7
0.228, 5.913e-7
0.229, 5.936e-7
0.230, 5.977e-7
0.231, 6.006e-7
0.232, 6.038e-7
0.233, 6.069e-7
0.234, 6.099e-7
0.235, 6.130e-7
0.236, 6.160e-7
0.237, 6.195e-7
0.238, 6.227e-7
0.239, 6.262e-7
0.240, 6.296e-7
0.241, 6.327e-7
0.242, 6.359e-7
0.243, 6.399e-7
0.244, 6.438e-7
0.245, 6.458e-7
0.246, 6.495e-7
0.247, 6.538e-7
0.248, 6.570e-7
0.249, 6.606e-7
0.250, 6.641e-7
0.251, 6.673e-7
0.252, 6.717e-7
0.253, 6.746e-7
0.254, 6.784e-7
0.255, 6.823e-7
0.256, 6.861e-7
0.257, 6.902e-7
0.258, 6.932e-7
0.259, 6.967e-7
0.260, 7.007e-7
0.261, 7.043e-7
0.262, 7.083e-7
0.263, 7.120e-7
0.264, 7.154e-7
0.265, 7.199e-7
0.266, 7.230e-7
0.267, 7.275e-7
0.268, 7.314e-7
0.269, 7.355e-7
0.270, 7.394e-7
0.271, 7.431e-7
0.272, 7.483e-7
0.273, 7.524e-7
0.274, 7.561e-7
0.275, 7.606e-7
0.276, 7.649e-7
0.277, 7.689e-7
0.278, 7.731e-7
0.279, 7.771e-7
0.280, 7.815e-7
0.281, 7.858e-7
0.282, 7.907e-7
0.283, 7.940e-7
0.284, 7.983e-7
0.285, 8.025e-7
0.286, 8.067e-7
0.287, 8.110e-7
0.288, 8.155e-7
0.289, 8.196e-7
0.290, 8.239e-7
0.291, 8.279e-7
0.292, 8.333e-7
0.293, 8.367e-7
0.294, 8.415e-7
0.295, 8.462e-7
0.296, 8.498e-7
0.297, 8.552e-7
0.298, 8.591e-7
0.299, 8.631e-7
0.300, 8.686e-7
0.301, 8.723e-7
0.302, 8.777e-7
0.303, 8.817e-7
0.304, 8.860e-7
0.305, 8.913e-7
0.306, 8.948e-7
0.307, 9.016e-7
0.308, 9.062e-7
0.309, 9.097e-7
0.310, 9.146e-7
0.311, 9.192e-7
0.312, 9.234e-7
0.313, 9.290e-7
0.314, 9.334e-7
0.315, 9.381e-7
0.316, 9.426e-7
0.317, 9.475e-7
0.318, 9.523e-7
0.319, 9.577e-7
0.320, 9.617e-7
0.321, 9.665e-7
0.322, 9.716e-7
0.323, 9.762e-7
0.324, 9.817e-7
0.325, 9.856e-7
0.326, 9.908e-7
0.327, 9.964e-7
0.328, 1.000e-6
0.329, 1.006e-6
0.330, 1.011e-6
0.331, 1.015e-6
0.332, 1.021e-6
0.333, 1.027e-6
0.334, 1.031e-6
0.335, 1.037e-6
0.336, 1.041e-6
0.337, 1.047e-6
0.338, 1.052e-6
0.339, 1.056e-6
0.340, 1.062e-6
0.341, 1.067e-6
0.342, 1.072e-6
0.343, 1.078e-6
0.344, 1.082e-6
0.345, 1.088e-6
0.346, 1.093e-6
0.347, 1.098e-6
0.348, 1.104e-6
0.349, 1.108e-6
0.350, 1.114e-6
0.351, 1.119e-6
0.352, 1.125e-6
0.353, 1.130e-6
0.354, 1.135e-6
0.355, 1.141e-6
0.356, 1.146e-6
0.357, 1.151e-6
0.358, 1.157e-6
0.359, 1.161e-6
0.360, 1.168e-6
0.361, 1.173e-6
0.362, 1.178e-6
0.363, 1.183e-6
0.364, 1.190e-6
0.365, 1.195e-6
0.366, 1.200e-6
0.367, 1.206e-6
0.368, 1.211e-6
0.369, 1.217e-6
0.370, 1.223e-6
0.371, 1.228e-6
0.372, 1.235e-6
0.373, 1.239e-6
0.374, 1.246e-6
0.375, 1.251e-6
0.376, 1.256e-6
0.377, 1.262e-6
0.378, 1.268e-6
0.379, 1.273e-6
0.380, 1.280e-6
0.381, 1.285e-6
0.382, 1.292e-6
0.383, 1.297e-6
0.384, 1.304e-6
0.385, 1.310e-6
0.386, 1.314e-6
0.387, 1.321e-6
0.388, 1.327e-6
0.389, 1.332e-6
0.390, 1.339e-6
0.391, 1.344e-6
0.392, 1.350e-6
0.393, 1.357e-6
0.394, 1.362e-6
0.395, 1.369e-6
0.396, 1.374e-6
0.397, 1.381e-6
0.398, 1.387e-6
0.399, 1.392e-6
0.400, 1.398e-6
0.401, 1.405e-6
0.402, 1.411e-6
0.403, 1.417e-6
0.404, 1.424e-6
0.405, 1.429e-6
0.406, 1.435e-6
0.407, 1.442e-6
0.408, 1.448e-6
0.409, 1.455e-6
0.410, 1.464e-6
0.411, 1.468e-6
0.412, 1.475e-6
0.413, 1.481e-6
0.414, 1.487e-6
0.415, 1.494e-6
0.416, 1.499e-6
0.417, 1.507e-6
0.418, 1.513e-6
0.419, 1.519e-6
0.420, 1.526e-6
0.421, 1.532e-6
0.422, 1.541e-6
0.423, 1.547e-6
0.424, 1.554e-6
0.425, 1.560e-6
0.426, 1.567e-6
0.427, 1.574e-6
0.428, 1.581e-6
0.429, 1.587e-6
0.430, 1.594e-6
0.431, 1.600e-6
0.432, 1.608e-6
0.433, 1.615e-6
0.434, 1.621e-6
0.435, 1.628e-6
0.436, 1.635e-6
0.437, 1.642e-6
0.438, 1.649e-6
0.439, 1.656e-6
0.440, 1.662e-6
0.441, 1.670e-6
0.442, 1.677e-6
0.443, 1.683e-6
0.444, 1.691e-6
0.445, 1.697e-6
0.446, 1.705e-6
0.447, 1.712e-6
0.448, 1.719e-6
0.449, 1.727e-6
0.450, 1.734e-6
0.451, 1.740e-6
0.452, 1.748e-6
0.453, 1.755e-6
0.454, 1.763e-6
0.455, 1.771e-6
0.456, 1.776e-6
0.457, 1.785e-6
0.458, 1.792e-6
0.459, 1.799e-6
0.460, 1.807e-6
0.461, 1.815e-6
0.462, 1.823e-6
0.463, 1.831e-6
0.464, 1.837e-6
0.465, 1.846e-6
0.466, 1.853e-6
0.467, 1.861e-6
0.468, 1.869e-6
0.469, 1.876e-6
0.470, 1.884e-6
0.471, 1.892e-6
0.472, 1.900e-6
0.473, 1.908e-6
0.474, 1.916e-6
0.475, 1.924e-6
0.476, 1.932e-6
0.477, 1.939e-6
0.478, 1.946e-6
0.479, 1.954e-6
0.480, 1.962e-6
0.481, 1.971e-6
0.482, 1.979e-6
0.483, 1.988e-6
0.484, 1.996e-6
0.485, 2.004e-6
0.486, 2.013e-6
0.487, 2.023e-6
0.488, 2.030e-6
0.489, 2.039e-6
0.490, 2.047e-6
0.491, 2.056e-6
0.492, 2.066e-6
0.493, 2.074e-6
0.494, 2.083e-6
0.495, 2.091e-6
0.496, 2.100e-6
0.497, 2.110e-6
0.498, 2.119e-6
0.499, 2.128e-6
0.500, 2.138e-6
0.501, 2.146e-6
0.502, 2.157e-6
0.503, 2.165e-6
0.504, 2.174e-6
0.505, 2.184e-6
0.506, 2.192e-6
0.507, 2.203e-6
0.508, 2.213e-6
0.509, 2.222e-6
0.510, 2.232e-6
0.511, 2.242e-6
0.512, 2.255e-6
0.513, 2.265e-6
0.514, 2.274e-6
0.515, 2.284e-6
0.516, 2.295e-6
0.517, 2.305e-6
0.518, 2.316e-6
0.519, 2.328e-6
0.520, 2.338e-6
0.521, 2.349e-6
0.522, 2.361e-6
0.523, 2.371e-6
0.524, 2.382e-6
0.525, 2.394e-6
0.526, 2.405e-6
0.527, 2.417e-6
0.528, 2.428e-6
0.529, 2.439e-6
0.530, 2.451e-6
0.531, 2.463e-6
0.532, 2.476e-6
0.533, 2.487e-6
0.534, 2.499e-6
0.535, 2.512e-6
0.536, 2.524e-6
0.537, 2.538e-6
0.538, 2.551e-6
0.539, 2.563e-6
0.540, 2.576e-6
0.541, 2.589e-6
0.542, 2.603e-6
0.543, 2.616e-6
0.544, 2.630e-6
0.545, 2.645e-6
0.546, 2.658e-6
0.547, 2.673e-6
0.548, 2.687e-6
0.549, 2.702e-6
0.550, 2.717e-6
0.551, 2.732e-6
0.552, 2.747e-6
0.553, 2.762e-6
0.554, 2.778e-6
0.555, 2.794e-6
0.556, 2.810e-6
0.557, 2.827e-6
0.558, 2.844e-6
0.559, 2.861e-6
0.560, 2.878e-6
0.561, 2.895e-6
0.562, 2.914e-6
0.563, 2.932e-6
0.564, 2.951e-6
0.565, 2.969e-6
0.566, 2.988e-6
0.567, 3.008e-6
0.568, 3.027e-6
0.569, 3.048e-6
0.570, 3.068e-6
0.571, 3.088e-6
0.572, 3.111e-6
0.573, 3.133e-6
0.574, 3.156e-6
0.575, 3.178e-6
0.576, 3.200e-6
0.577, 3.225e-6
0.578, 3.248e-6
0.579, 3.272e-6
0.580, 3.297e-6
0.581, 3.321e-6
0.582, 3.347e-6
0.583, 3.373e-6
0.584, 3.400e-6
0.585, 3.428e-6
0.586, 3.455e-6
0.587, 3.483e-6
0.588, 3.512e-6
0.589, 3.540e-6
0.590, 3.570e-6
0.591, 3.601e-6
0.592, 3.633e-6
0.593, 3.665e-6
0.594, 3.698e-6
0.595, 3.731e-6
0.596, 3.765e-6
0.597, 3.801e-6
0.598, 3.836e-6
0.599, 3.873e-6
0.600, 3.911e-6
0.601, 3.951e-6
0.602, 3.990e-6
0.603, 4.029e-6
0.604, 4.071e-6
0.605, 4.112e-6
0.606, 4.155e-6
0.607, 4.200e-6
0.608, 4.245e-6
0.609, 4.291e-6
0.610, 4.337e-6
0.611, 4.385e-6
0.612, 4.435e-6
0.613, 4.485e-6
0.614, 4.537e-6
0.615, 4.591e-6
0.616, 4.645e-6
0.617, 4.702e-6
0.618, 4.759e-6
0.619, 4.818e-6
0.620, 4.878e-6
0.621, 4.938e-6
0.622, 5.001e-6
0.623, 5.065e-6
0.624, 5.128e-6
0.625, 5.195e-6
0.626, 5.264e-6
0.627, 5.335e-6
0.628, 5.408e-6
0.629, 5.482e-6
0.630, 5.559e-6
0.631, 5.636e-6
0.632, 5.715e-6
0.633, 5.797e-6
0.634, 5.880e-6
0.635, 5.965e-6
0.636, 6.052e-6
0.637, 6.142e-6
0.638, 6.234e-6
0.639, 6.329e-6
0.640, 6.426e-6
0.641, 6.525e-6
0.642, 6.625e-6
0.643, 6.726e-6
0.644, 6.832e-6
0.645, 6.939e-6
0.646, 7.051e-6
0.647, 7.166e-6
0.648, 7.281e-6
0.649, 7.399e-6
0.650, 7.520e-6
0.651, 7.643e-6
0.652, 7.771e-6
0.653, 7.902e-6
0.654, 8.035e-6
0.655, 8.171e-6
0.656, 8.307e-6
0.657, 8.450e-6
0.658, 8.594e-6
0.659, 8.744e-6
0.660, 8.895e-6
0.661, 9.048e-6
0.662, 9.206e-6
0.663, 9.369e-6
0.664, 9.534e-6
0.665, 9.703e-6
0.666, 9.873e-6
0.667, 1.005e-5
0.668, 1.023e-5
0.669, 1.041e-5
0.670, 1.060e-5
0.671, 1.079e-5
0.672, 1.098e-5
0.673, 1.118e-5
0.674, 1.138e-5
0.675, 1.159e-5
0.676, 1.180e-5
0.677, 1.201e-5
0.678, 1.223e-5
0.679, 1.245e-5
0.680, 1.268e-5
0.681, 1.290e-5
0.682, 1.314e-5
0.683, 1.337e-5
0.684, 1.362e-5
0.685, 1.386e-5
0.686, 1.411e-5
0.687, 1.437e-5
0.688, 1.463e-5
0.689, 1.489e-5
0.690, 1.516e-5
0.691, 1.543e-5
0.692, 1.571e-5
0.693, 1.600e-5
0.694, 1.628e-5
0.695, 1.657e-5
0.696, 1.686e-5
0.697, 1.716e-5
0.698, 1.747e-5
0.699, 1.778e-5
0.700, 1.809e-5
0.701, 1.840e-5
0.702, 1.873e-5
0.703, 1.905e-5
0.704, 1.938e-5
0.705, 1.972e-5
0.706, 2.006e-5
0.707, 2.040e-5
0.708, 2.075e-5
0.709, 2.110e-5
0.710, 2.146e-5
0.711, 2.182e-5
0.712, 2.219e-5
0.713, 2.256e-5
0.714, 2.294e-5
0.715, 2.332e-5
0.716, 2.370e-5
0.717, 2.409e-5
0.718, 2.449e-5
0.719, 2.489e-5
0.720, 2.529e-5
0.721, 2.569e-5
0.722, 2.610e-5
0.723, 2.652e-5
0.724, 2.694e-5
0.725, 2.736e-5
0.726, 2.779e-5
0.727, 2.822e-5
0.728, 2.865e-5
0.729, 2.909e-5
0.730, 2.954e-5
0.731, 2.999e-5
0.732, 3.044e-5
0.733, 3.090e-5
0.734, 3.136e-5
0.735, 3.182e-5
0.736, 3.229e-5
0.737, 3.276e-5
0.738, 3.324e-5
0.739, 3.372e-5
0.740, 3.420e-5
0.741, 3.469e-5
0.742, 3.518e-5
0.743, 3.568e-5
0.744, 3.618e-5
0.745, 3.668e-5
0.746, 3.718e-5
0.747, 3.770e-5
0.748, 3.821e-5
0.749, 3.873e-5
0.750, 3.925e-5
0.751, 3.977e-5
0.752, 4.030e-5
0.753, 4.083e-5
0.754, 4.136e-5
0.755, 4.190e-5
0.756, 4.244e-5
0.757, 4.298e-5
0.758, 4.353e-5
0.759, 4.408e-5
0.760, 4.464e-5
0.761, 4.519e-5
0.762, 4.575e-5
0.763, 4.631e-5
0.764, 4.688e-5
0.765, 4.745e-5
0.766, 4.802e-5
0.767, 4.859e-5
0.768, 4.917e-5
0.769, 4.975e-5
0.770, 5.033e-5
0.771, 5.092e-5
0.772, 5.151e-5
0.773, 5.210e-5
0.774, 5.269e-5
0.775, 5.329e-5
0.776, 5.388e-5
0.777, 5.448e-5
0.778, 5.509e-5
0.779, 5.569e-5
0.780, 5.630e-5
0.781, 5.691e-5
0.782, 5.752e-5
0.783, 5.813e-5
0.784, 5.875e-5
0.785, 5.937e-5
0.786, 5.999e-5
0.787, 6.061e-5
0.788, 6.124e-5
0.789, 6.186e-5
0.790, 6.249e-5
0.791, 6.312e-5
0.792, 6.375e-5
0.793, 6.438e-5
0.794, 6.502e-5
0.795, 6.566e-5
0.796, 6.630e-5
0.797, 6.694e-5
0.798, 6.758e-5
0.799, 6.822e-5
0.800, 6.868e-5
0.799, 6.816e-5
0.798, 6.729e-5
0.797, 6.639e-5
0.796, 6.550e-5
0.795, 6.462e-5
0.794, 6.375e-5
0.793, 6.289e-5
0.792, 6.204e-5
0.791, 6.120e-5
0.790, 6.037e-5
0.789, 5.955e-5
0.788, 5.874e-5
0.787, 5.793e-5
0.786, 5.713e-5
0.785, 5.635e-5
0.784, 5.556e-5
0.783, 5.479e-5
0.782, 5.403e-5
0.781, 5.327e-5
0.780, 5.252e-5
0.779, 5.177e-5
0.778, 5.104e-5
0.777, 5.031e-5
0.776, 4.959e-5
0.775, 4.887e-5
0.774, 4.816e-5
0.773, 4.746e-5
0.772, 4.677e-5
0.771, 4.608e-5
0.770, 4.540e-5
0.769, 4.472e-5
0.768, 4.405e-5
0.767, 4.339e-5
0.766, 4.273e-5
0.765, 4.208e-5
0.764, 4.144e-5
0.763, 4.080e-5
0.762, 4.017e-5
0.761, 3.954e-5
0.760, 3.892e-5
0.759, 3.831e-5
0.758, 3.771e-5
0.757, 3.711e-5
0.756, 3.651e-5
0.755, 3.592e-5
0.754, 3.534e-5
0.753, 3.476e-5
0.752, 3.419e-5
0.751, 3.363e-5
0.750, 3.307e-5
0.749, 3.252e-5
0.748, 3.197e-5
0.747, 3.143e-5
0.746, 3.090e-5
0.745, 3.037e-5
0.744, 2.984e-5
0.743, 2.932e-5
0.742, 2.881e-5
0.741, 2.831e-5
0.740, 2.781e-5
0.739, 2.731e-5
0.738, 2.682e-5
0.737, 2.634e-5
0.736, 2.586e-5
0.735, 2.539e-5
0.734, 2.492e-5
0.733, 2.446e-5
0.732, 2.401e-5
0.731, 2.356e-5
0.730, 2.312e-5
0.729, 2.268e-5
0.728, 2.225e-5
0.727, 2.182e-5
0.726, 2.140e-5
0.725, 2.098e-5
0.724, 2.057e-5
0.723, 2.017e-5
0.722, 1.977e-5
0.721, 1.938e-5
0.720, 1.899e-5
0.719, 1.861e-5
0.718, 1.823e-5
0.717, 1.785e-5
0.716, 1.749e-5
0.715, 1.712e-5
0.714, 1.677e-5
0.713, 1.642e-5
0.712, 1.607e-5
0.711, 1.573e-5
0.710, 1.540e-5
0.709, 1.507e-5
0.708, 1.474e-5
0.707, 1.443e-5
0.706, 1.411e-5
0.705, 1.380e-5
0.704, 1.350e-5
0.703, 1.320e-5
0.702, 1.291e-5
0.701, 1.262e-5
0.700, 1.233e-5
0.699, 1.205e-5
0.698, 1.178e-5
0.697, 1.151e-5
0.696, 1.125e-5
0.695, 1.099e-5
0.694, 1.073e-5
0.693, 1.048e-5
0.692, 1.023e-5
0.691, 9.988e-6
0.690, 9.753e-6
0.689, 9.521e-6
0.688, 9.292e-6
0.687, 9.067e-6
0.686, 8.848e-6
0.685, 8.633e-6
0.684, 8.421e-6
0.683, 8.215e-6
0.682, 8.013e-6
0.681, 7.813e-6
0.680, 7.619e-6
0.679, 7.428e-6
0.678, 7.242e-6
0.677, 7.058e-6
0.676, 6.878e-6
0.675, 6.705e-6
0.674, 6.534e-6
0.673, 6.367e-6
0.672, 6.200e-6
0.671, 6.040e-6
0.670, 5.884e-6
0.669, 5.730e-6
0.668, 5.580e-6
0.667, 5.433e-6
0.666, 5.288e-6
0.665, 5.148e-6
0.664, 5.013e-6
0.663, 4.879e-6
0.662, 4.748e-6
0.661, 4.619e-6
0.660, 4.495e-6
0.659, 4.373e-6
0.658, 4.255e-6
0.657, 4.139e-6
0.656, 4.026e-6
0.655, 3.915e-6
0.654, 3.806e-6
0.653, 3.701e-6
0.652, 3.598e-6
0.651, 3.500e-6
0.650, 3.403e-6
0.649, 3.308e-6
0.648, 3.216e-6
0.647, 3.124e-6
0.646, 3.035e-6
0.645, 2.950e-6
0.644, 2.866e-6
0.643, 2.784e-6
0.642, 2.705e-6
0.641, 2.628e-6
0.640, 2.552e-6
0.639, 2.478e-6
0.638, 2.407e-6
0.637, 2.337e-6
0.636, 2.268e-6
0.635, 2.203e-6
0.634, 2.138e-6
0.633, 2.075e-6
0.632, 2.014e-6
0.631, 1.955e-6
0.630, 1.899e-6
0.629, 1.843e-6
0.628, 1.789e-6
0.627, 1.736e-6
0.626, 1.683e-6
0.625, 1.634e-6
0.624, 1.584e-6
0.623, 1.535e-6
0.622, 1.488e-6
0.621, 1.443e-6
0.620, 1.399e-6
0.619, 1.357e-6
0.618, 1.315e-6
0.617, 1.275e-6
0.616, 1.235e-6
0.615, 1.197e-6
0.614, 1.159e-6
0.613, 1.123e-6
0.612, 1.089e-6
0.611, 1.054e-6
0.610, 1.021e-6
0.609, 9.891e-7
0.608, 9.576e-7
0.607, 9.266e-7
0.606, 8.967e-7
0.605, 8.681e-7
0.604, 8.394e-7
0.603, 8.124e-7
0.602, 7.851e-7
0.601, 7.594e-7
0.600, 7.330e-7
0.599, 7.076e-7
0.598, 6.843e-7
0.597, 6.612e-7
0.596, 6.382e-7
0.595, 6.163e-7
0.594, 5.948e-7
0.593, 5.741e-7
0.592, 5.537e-7
0.591, 5.334e-7
0.590, 5.150e-7
0.589, 4.950e-7
0.588, 4.766e-7
0.587, 4.596e-7
0.586, 4.424e-7
0.585, 4.263e-7
0.584, 4.091e-7
0.583, 3.930e-7
0.582, 3.780e-7
0.581, 3.639e-7
0.580, 3.506e-7
0.579, 3.362e-7
0.578, 3.216e-7
0.577, 3.087e-7
0.576, 2.943e-7
0.575, 2.821e-7
0.574, 2.699e-7
0.573, 2.569e-7
0.572, 2.453e-7
0.571, 2.331e-7
0.570, 2.219e-7
0.569, 2.108e-7
0.568, 1.995e-7
0.567, 1.888e-7
0.566, 1.784e-7
0.565, 1.684e-7
0.564, 1.584e-7
0.563, 1.481e-7
0.562, 1.388e-7
0.561, 1.296e-7
0.560, 1.214e-7
0.559, 1.122e-7
0.558, 1.038e-7
0.557, 9.512e-8
0.556, 8.644e-8
0.555, 7.924e-8
0.554, 7.063e-8
0.553, 6.279e-8
0.552, 5.588e-8
0.551, 4.712e-8
0.550, 4.117e-8
0.549, 3.360e-8
0.548, 2.642e-8
0.547, 2.035e-8
0.546, 1.246e-8
0.545, 7.285e-9
0.544, 4.331e-10
0.543, -5.985e-9
0.542, -1.152e-8
0.541, -1.886e-8
0.540, -2.440e-8
0.539, -2.976e-8
0.538, -3.737e-8
0.537, -4.327e-8
0.536, -4.851e-8
0.535, -5.408e-8
0.534, -5.877e-8
0.533, -6.517e-8
0.532, -7.046e-8
0.531, -7.560e-8
0.530, -8.063e-8
0.529, -8.490e-8
0.528, -9.046e-8
0.527, -9.499e-8
0.526, -9.921e-8
0.525, -1.043e-7
0.524, -1.084e-7
0.523, -1.133e-7
0.522, -1.175e-7
0.521, -1.215e-7
0.520, -1.252e-7
0.519, -1.299e-7
0.518, -1.338e-7
0.517, -1.381e-7
0.516, -1.428e-7
0.515, -1.453e-7
0.514, -1.496e-7
0.513, -1.531e-7
0.512, -1.588e-7
0.511, -1.625e-7
0.510, -1.648e-7
0.509, -1.686e-7
0.508, -1.726e-7
0.507, -1.752e-7
0.506, -1.797e-7
0.505, -1.824e-7
0.504, -1.856e-7
0.503, -1.903e-7
0.502, -1.925e-7
0.501, -1.960e-7
0.500, -1.992e-7
0.499, -2.028e-7
0.498, -2.065e-7
0.497, -2.091e-7
0.496, -2.121e-7
0.495, -2.150e-7
0.494, -2.176e-7
0.493, -2.215e-7
0.492, -2.244e-7
0.491, -2.274e-7
0.490, -2.301e-7
0.489, -2.328e-7
0.488, -2.362e-7
0.487, -2.393e-7
0.486, -2.427e-7
0.485, -2.448e-7
0.484, -2.476e-7
0.483, -2.495e-7
0.482, -2.534e-7
0.481, -2.558e-7
0.480, -2.586e-7
0.479, -2.617e-7
0.478, -2.641e-7
0.477, -2.668e-7
0.476, -2.700e-7
0.475, -2.714e-7
0.474, -2.748e-7
0.473, -2.777e-7
0.472, -2.795e-7
0.471, -2.834e-7
0.470, -2.847e-7
0.469, -2.876e-7
0.468, -2.907e-7
0.467, -2.928e-7
0.466, -2.958e-7
0.465, -2.975e-7
0.464, -3.001e-7
0.463, -3.030e-7
0.462, -3.049e-7
0.461, -3.086e-7
0.460, -3.108e-7
0.459, -3.125e-7
0.458, -3.159e-7
0.457, -3.178e-7
0.456, -3.202e-7
0.455, -3.225e-7
0.454, -3.245e-7
0.453, -3.273e-7
0.452, -3.296e-7
0.451, -3.322e-7
0.450, -3.344e-7
0.449, -3.368e-7
0.448, -3.392e-7
0.447, -3.419e-7
0.446, -3.441e-7
0.445, -3.460e-7
0.444, -3.484e-7
0.443, -3.508e-7
0.442, -3.532e-7
0.441, -3.555e-7
0.440, -3.572e-7
0.439, -3.601e-7
0.438, -3.621e-7
0.437, -3.643e-7
0.436, -3.674e-7
0.435, -3.694e-7
0.434, -3.715e-7
0.433, -3.734e-7
0.432, -3.754e-7
0.431, -3.787e-7
0.430, -3.799e-7
0.429, -3.822e-7
0.428, -3.851e-7
0.427, -3.865e-7
0.426, -3.897e-7
0.425, -3.910e-7
0.424, -3.934e-7
0.423, -3.966e-7
0.422, -3.979e-7
0.421, -4.009e-7
0.420, -4.025e-7
0.419, -4.041e-7
0.418, -4.074e-7
0.417, -4.086e-7
0.416, -4.116e-7
0.415, -4.134e-7
0.414, -4.154e-7
0.413, -4.179e-7
0.412, -4.198e-7
0.411, -4.222e-7
0.410, -4.254e-7
0.409, -4.287e-7
0.408, -4.294e-7
0.407, -4.321e-7
0.406, -4.329e-7
0.405, -4.347e-7
0.404, -4.372e-7
0.403, -4.396e-7
0.402, -4.415e-7
0.401, -4.433e-7
0.400, -4.454e-7
0.399, -4.482e-7
0.398, -4.496e-7
0.397, -4.526e-7
0.396, -4.550e-7
0.395, -4.564e-7
0.394, -4.594e-7
0.393, -4.611e-7
0.392, -4.630e-7
0.391, -4.660e-7
0.390, -4.673e-7
0.389, -4.700e-7
0.388, -4.719e-7
0.387, -4.741e-7
0.386, -4.769e-7
0.385, -4.782e-7
0.384, -4.813e-7
0.383, -4.839e-7
0.382, -4.850e-7
0.381, -4.878e-7
0.380, -4.896e-7
0.379, -4.911e-7
0.378, -4.938e-7
0.377, -4.958e-7
0.376, -4.979e-7
0.375, -5.001e-7
0.374, -5.018e-7
0.373, -5.049e-7
0.372, -5.072e-7
0.371, -5.091e-7
0.370, -5.116e-7
0.369, -5.136e-7
0.368, -5.154e-7
0.367, -5.179e-7
0.366, -5.196e-7
0.365, -5.220e-7
0.364, -5.242e-7
0.363, -5.257e-7
0.362, -5.287e-7
0.361, -5.314e-7
0.360, -5.325e-7
0.359, -5.353e-7
0.358, -5.381e-7
0.357, -5.402e-7
0.356, -5.425e-7
0.355, -5.439e-7
0.354, -5.465e-7
0.353, -5.485e-7
0.352, -5.506e-7
0.351, -5.533e-7
0.350, -5.550e-7
0.349, -5.573e-7
0.348, -5.598e-7
0.347, -5.616e-7
0.346, -5.649e-7
0.345, -5.662e-7
0.344, -5.685e-7
0.343, -5.716e-7
0.342, -5.727e-7
0.341, -5.760e-7
0.340, -5.777e-7
0.339, -5.800e-7
0.338, -5.825e-7
0.337, -5.853e-7
0.336, -5.872e-7
0.335, -5.887e-7
0.334, -5.910e-7
0.333, -5.941e-7
0.332, -5.962e-7
0.331, -5.984e-7
0.330, -6.003e-7
0.329, -6.022e-7
0.328, -6.049e-7
0.327, -6.075e-7
0.326, -6.093e-7
0.325, -6.109e-7
0.324, -6.141e-7
0.323, -6.156e-7
0.322, -6.187e-7
0.321, -6.205e-7
0.320, -6.231e-7
0.319, -6.257e-7
0.318, -6.275e-7
0.317, -6.298e-7
0.316, -6.324e-7
0.315, -6.346e-7
0.314, -6.371e-7
0.313, -6.394e-7
0.312, -6.410e-7
0.311, -6.444e-7
0.310, -6.456e-7
0.309, -6.484e-7
0.308, -6.512e-7
0.307, -6.551e-7
0.306, -6.567e-7
0.305, -6.584e-7
0.304, -6.604e-7
0.303, -6.639e-7
0.302, -6.651e-7
0.301, -6.681e-7
0.300, -6.702e-7
0.299, -6.722e-7
0.298, -6.753e-7
0.297, -6.774e-7
0.296, -6.800e-7
0.295, -6.824e-7
0.294, -6.845e-7
0.293, -6.872e-7
0.292, -6.897e-7
0.291, -6.917e-7
0.290, -6.942e-7
0.289, -6.965e-7
0.288, -6.994e-7
0.287, -7.018e-7
0.286, -7.040e-7
0.285, -7.062e-7
0.284, -7.088e-7
0.283, -7.112e-7
0.282, -7.145e-7
0.281, -7.174e-7
0.280, -7.187e-7
0.279, -7.216e-7
0.278, -7.241e-7
0.277, -7.263e-7
0.276, -7.294e-7
0.275, -7.310e-7
0.274, -7.340e-7
0.273, -7.366e-7
0.272, -7.388e-7
0.271, -7.422e-7
0.270, -7.436e-7
0.269, -7.464e-7
0.268, -7.496e-7
0.267, -7.510e-7
0.266, -7.544e-7
0.265, -7.566e-7
0.264, -7.592e-7
0.263, -7.625e-7
0.262, -7.641e-7
0.261, -7.673e-7
0.260, -7.695e-7
0.259, -7.721e-7
0.258, -7.750e-7
0.257, -7.778e-7
0.256, -7.811e-7
0.255, -7.835e-7
0.254, -7.854e-7
0.253, -7.885e-7
0.252, -7.911e-7
0.251, -7.931e-7
0.250, -7.960e-7
0.249, -7.990e-7
0.248, -8.018e-7
0.247, -8.041e-7
0.246, -8.066e-7
0.245, -8.094e-7
0.244, -8.123e-7
0.243, -8.151e-7
0.242, -8.178e-7
0.241, -8.204e-7
0.240, -8.234e-7
0.239, -8.270e-7
0.238, -8.293e-7
0.237, -8.328e-7
0.236, -8.355e-7
0.235, -8.381e-7
0.234, -8.414e-7
0.233, -8.439e-7
0.232, -8.466e-7
0.231, -8.498e-7
0.230, -8.527e-7
0.229, -8.555e-7
0.228, -8.587e-7
0.227, -8.608e-7
0.226, -8.643e-7
0.225, -8.665e-7
0.224, -8.692e-7
0.223, -8.729e-7
0.222, -8.749e-7
0.221, -8.782e-7
0.220, -8.810e-7
0.219, -8.837e-7
0.218, -8.870e-7
0.217, -8.893e-7
0.216, -8.926e-7
0.215, -8.955e-7
0.214, -8.980e-7
0.213, -9.013e-7
0.212, -9.041e-7
0.211, -9.070e-7
0.210, -9.102e-7
0.209, -9.127e-7
0.208, -9.161e-7
0.207, -9.191e-7
0.206, -9.222e-7
0.205, -9.257e-7
0.204, -9.293e-7
0.203, -9.315e-7
0.202, -9.348e-7
0.201, -9.374e-7
0.200, -9.402e-7
0.199, -9.442e-7
0.198, -9.464e-7
0.197, -9.498e-7
0.196, -9.531e-7
0.195, -9.561e-7
0.194, -9.591e-7
0.193, -9.622e-7
0.192, -9.652e-7
0.191, -9.692e-7
0.190, -9.711e-7
0.189, -9.744e-7
0.188, -9.786e-7
0.187, -9.811e-7
0.186, -9.849e-7
0.185, -9.875e-7
0.184, -9.905e-7
0.183, -9.948e-7
0.182, -9.968e-7
0.181, -1.000e-6
0.180, -1.004e-6
0.179, -1.007e-6
0.178, -1.011e-6
0.177, -1.014e-6
0.176, -1.017e-6
0.175, -1.021e-6
0.174, -1.023e-6
0.173, -1.027e-6
0.172, -1.031e-6
0.171, -1.034e-6
0.170, -1.037e-6
0.169, -1.040e-6
0.168, -1.044e-6
0.167, -1.047e-6
0.166, -1.051e-6
0.165, -1.054e-6
0.164, -1.058e-6
0.163, -1.061e-6
0.162, -1.065e-6
0.161, -1.069e-6
0.160, -1.072e-6
0.159, -1.076e-6
0.158, -1.079e-6
0.157, -1.083e-6
0.156, -1.086e-6
0.155, -1.090e-6
0.154, -1.094e-6
0.153, -1.099e-6
0.152, -1.101e-6
0.151, -1.105e-6
0.150, -1.108e-6
0.149, -1.112e-6
0.148, -1.116e-6
0.147, -1.120e-6
0.146, -1.124e-6
0.145, -1.127e-6
0.144, -1.131e-6
0.143, -1.136e-6
0.142, -1.138e-6
0.141, -1.143e-6
0.140, -1.147e-6
0.139, -1.150e-6
0.138, -1.154e-6
0.137, -1.158e-6
0.136, -1.163e-6
0.135, -1.167e-6
0.134, -1.170e-6
0.133, -1.175e-6
0.132, -1.178e-6
0.131, -1.182e-6
0.130, -1.187e-6
0.129, -1.191e-6
0.128, -1.196e-6
0.127, -1.200e-6
0.126, -1.203e-6
0.125, -1.208e-6
0.124, -1.211e-6
0.123, -1.215e-6
0.122, -1.219e-6
0.121, -1.223e-6
0.120, -1.227e-6
0.119, -1.232e-6
0.118, -1.235e-6
0.117, -1.241e-6
0.116, -1.245e-6
0.115, -1.250e-6
0.114, -1.255e-6
0.113, -1.259e-6
0.112, -1.263e-6
0.111, -1.269e-6
0.110, -1.273e-6
0.109, -1.277e-6
0.108, -1.283e-6
0.107, -1.286e-6
0.106, -1.292e-6
0.105, -1.296e-6
0.104, -1.301e-6
0.103, -1.307e-6
0.102, -1.313e-6
0.101, -1.317e-6
0.100, -1.322e-6
0.099, -1.327e-6
0.098, -1.332e-6
0.097, -1.337e-6
0.096, -1.343e-6
0.095, -1.348e-6
0.094, -1.353e-6
0.093, -1.359e-6
0.092, -1.364e-6
0.091, -1.370e-6
0.090, -1.375e-6
0.089, -1.381e-6
0.088, -1.386e-6
0.087, -1.392e-6
0.086, -1.397e-6
0.085, -1.402e-6
0.084, -1.408e-6
0.083, -1.414e-6
0.082, -1.420e-6
0.081, -1.425e-6
0.080, -1.432e-6
0.079, -1.438e-6
0.078, -1.444e-6
0.077, -1.451e-6
0.076, -1.457e-6
0.075, -1.463e-6
0.074, -1.469e-6
0.073, -1.476e-6
0.072, -1.482e-6
0.071, -1.489e-6
0.070, -1.495e-6
0.069, -1.502e-6
0.068, -1.509e-6
0.067, -1.515e-6
0.066, -1.523e-6
0.065, -1.529e-6
0.064, -1.536e-6
0.063, -1.544e-6
0.062, -1.551e-6
0.061, -1.558e-6
0.060, -1.566e-6
0.059, -1.573e-6
0.058, -1.581e-6
0.057, -1.588e-6
0.056, -1.596e-6
0.055, -1.604e-6
0.054, -1.612e-6
0.053, -1.621e-6
0.052, -1.629e-6
0.051, -1.638e-6
0.050, -1.646e-6
0.049, -1.654e-6
0.048, -1.663e-6
0.047, -1.672e-6
0.046, -1.679e-6
0.045, -1.689e-6
0.044, -1.697e-6
0.043, -1.706e-6
0.042, -1.715e-6
0.041, -1.724e-6
0.040, -1.733e-6
0.039, -1.743e-6
0.038, -1.753e-6
0.037, -1.762e-6
0.036, -1.772e-6
0.035, -1.781e-6
0.034, -1.791e-6
0.033, -1.801e-6
0.032, -1.811e-6
0.031, -1.822e-6
0.030, -1.832e-6
0.029, -1.842e-6
0.028, -1.853e-6
0.027, -1.864e-6
0.026, -1.875e-6
0.025, -1.887e-6
0.024, -1.897e-6
0.023, -1.908e-6
0.022, -1.920e-6
0.021, -1.931e-6
0.020, -1.943e-6
0.019, -1.954e-6
0.018, -1.967e-6
0.017, -1.978e-6
0.016, -1.990e-6
0.015, -2.003e-6
0.014, -2.014e-6
0.013, -2.027e-6
0.012, -2.040e-6
0.011, -2.052e-6
0.010, -2.066e-6
0.009, -2.079e-6
0.008, -2.092e-6
0.007, -2.106e-6
0.006, -2.119e-6
0.005, -2.133e-6
0.004, -2.147e-6
0.003, -2.161e-6
0.002, -2.175e-6
0.001, -2.189e-6
0.000, -2.109e-6
0.001, -1.865e-6
0.002, -1.733e-6
0.003, -1.637e-6
0.004, -1.554e-6
0.005, -1.480e-6
0.006, -1.413e-6
0.007, -1.349e-6
0.008, -1.290e-6
0.009, -1.235e-6
0.010, -1.184e-6
0.011, -1.135e-6
0.012, -1.088e-6
0.013, -1.043e-6
0.014, -1.000e-6
0.015, -9.595e-7
0.016, -9.211e-7
0.017, -8.839e-7
0.018, -8.478e-7
0.019, -8.127e-7
0.020, -7.794e-7
0.021, -7.484e-7
0.022, -7.181e-7
0.023, -6.883e-7
0.024, -6.609e-7
0.025, -6.338e-7
0.026, -6.073e-7
0.027, -5.826e-7
0.028, -5.577e-7
0.029, -5.349e-7
0.030, -5.120e-7
0.031, -4.901e-7
0.032, -4.693e-7
0.033, -4.479e-7
0.034, -4.291e-7
0.035, -4.104e-7
0.036, -3.910e-7
0.037, -3.739e-7
0.038, -3.553e-7
0.039, -3.386e-7
0.040, -3.224e-7
0.041, -3.056e-7
0.042, -2.911e-7
0.043, -2.750e-7
0.044, -2.602e-7
0.045, -2.463e-7
0.046, -2.319e-7
0.047, -2.182e-7
0.048, -2.057e-7
0.049, -1.921e-7
0.050, -1.802e-7
0.051, -1.667e-7
0.052, -1.555e-7
0.053, -1.435e-7
0.054, -1.327e-7
0.055, -1.212e-7
0.056, -1.114e-7
0.057, -1.010e-7
0.058, -9.069e-8
0.059, -8.095e-8
0.060, -7.022e-8
0.061, -6.021e-8
0.062, -5.066e-8
0.063, -4.048e-8
0.064, -3.053e-8
0.065, -2.137e-8
0.066, -1.294e-8
0.067, -4.538e-9
0.068, 3.701e-9
0.069, 1.123e-8
0.070, 1.959e-8
0.071, 2.750e-8
0.072, 3.428e-8
0.073, 4.203e-8
0.074, 4.903e-8
0.075, 5.603e-8
0.076, 6.355e-8
0.077, 6.989e-8
0.078, 7.737e-8
0.079, 8.372e-8
0.080, 8.991e-8
0.081, 9.583e-8
0.082, 1.018e-7
0.083, 1.083e-7
0.084, 1.147e-7
0.085, 1.201e-7
0.086, 1.257e-7
0.087, 1.312e-7
0.088, 1.368e-7
0.089, 1.427e-7
0.090, 1.477e-7
0.091, 1.526e-7
0.092, 1.580e-7
0.093, 1.627e-7
0.094, 1.678e-7
0.095, 1.729e-7
0.096, 1.780e-7
0.097, 1.827e-7
0.098, 1.873e-7
0.099, 1.921e-7
0.100, 1.974e-7
0.101, 2.009e-7
0.102, 2.064e-7
0.103, 2.120e-7
0.104, 2.146e-7
0.105, 2.196e-7
0.106, 2.233e-7
0.107, 2.271e-7
0.108, 2.321e-7
0.109, 2.357e-7
0.110, 2.395e-7
0.111, 2.439e-7
0.112, 2.473e-7
0.113, 2.519e-7
0.114, 2.549e-7
0.115, 2.595e-7
0.116, 2.634e-7
0.117, 2.665e-7
0.118, 2.706e-7
0.119, 2.746e-7
0.120, 2.777e-7
0.121, 2.817e-7
0.122, 2.849e-7
0.123, 2.884e-7
0.124, 2.923e-7
0.125, 2.946e-7
0.126, 2.988e-7
0.127, 3.020e-7
0.128, 3.062e-7
0.129, 3.093e-7
0.130, 3.123e-7
0.131, 3.155e-7
0.132, 3.190e-7
0.133, 3.219e-7
0.134, 3.251e-7
0.135, 3.287e-7
0.136, 3.319e-7
0.137, 3.351e-7
0.138, 3.384e-7
0.139, 3.411e-7
0.140, 3.447e-7
0.141, 3.476e-7
0.142, 3.504e-7
0.143, 3.539e-7
0.144, 3.562e-7
0.145, 3.599e-7
0.146, 3.622e-7
0.147, 3.643e-7
0.148, 3.675e-7
0.149, 3.697e-7
0.150, 3.722e-7
0.151, 3.752e-7
0.152, 3.775e-7
0.153, 3.816e-7
0.154, 3.844e-7
0.155, 3.874e-7
0.156, 3.902e-7
0.157, 3.924e-7
0.158, 3.961e-7
0.159, 3.988e-7
0.160, 4.010e-7
0.161, 4.044e-7
0.162, 4.065e-7
0.163, 4.102e-7
0.164, 4.132e-7
0.165, 4.155e-7
0.166, 4.186e-7
0.167, 4.215e-7
0.168, 4.245e-7
0.169, 4.274e-7
0.170, 4.298e-7
0.171, 4.326e-7
0.172, 4.356e-7
0.173, 4.385e-7
0.174, 4.414e-7
0.175, 4.442e-7
0.176, 4.466e-7
0.177, 4.496e-7
0.178, 4.525e-7
0.179, 4.559e-7
0.180, 4.587e-7
0.181, 4.606e-7
0.182, 4.634e-7
0.183, 4.666e-7
0.184, 4.688e-7
0.185, 4.719e-7
0.186, 4.746e-7
0.187, 4.770e-7
0.188, 4.807e-7
0.189, 4.826e-7
0.190, 4.856e-7
0.191, 4.884e-7
0.192, 4.912e-7
0.193, 4.945e-7
0.194, 4.970e-7
0.195, 4.994e-7
0.196, 5.027e-7
0.197, 5.044e-7
0.198, 5.083e-7
0.199, 5.112e-7
0.200, 5.134e-7
0.201, 5.163e-7
0.202, 5.187e-7
0.203, 5.219e-7
0.204, 5.251e-7
0.205, 5.281e-7
0.206, 5.313e-7
0.207, 5.337e-7
0.208, 5.366e-7
0.209, 5.395e-7
0.210, 5.415e-7
0.211, 5.443e-7
0.212, 5.478e-7
0.213, 5.499e-7
0.214, 5.531e-7
0.215, 5.557e-7
0.216, 5.589e-7
0.217, 5.616e-7
0.218, 5.646e-7
0.219, 5.674e-7
0.220, 5.705e-7
0.221, 5.727e-7
0.222, 5.755e-7
0.223, 5.791e-7
0.224, 5.816e-7
0.225, 5.846e-7
0.226, 5.873e-7
0.227, 5.898e-7
0.228, 5.933e-7
0.229, 5.956e-7
0.230, 5.992e-7
0.231, 6.020e-7
0.232, 6.047e-7
0.233, 6.079e-7
0.234, 6.103e-7
0.235, 6.129e-7
0.236, 6.166e-7
0.237, 6.185e-7
0.238, 6.221e-7
0.239, 6.251e-7
0.240, 6.276e-7
0.241, 6.309e-7
0.242, 6.333e-7
0.243, 6.371e-7
0.244, 6.402e-7
0.245, 6.421e-7
0.246, 6.458e-7
0.247, 6.488e-7
0.248, 6.516e-7
0.249, 6.549e-7
0.250, 6.576e-7
0.251, 6.604e-7
0.252, 6.636e-7
0.253, 6.662e-7
0.254, 6.696e-7
0.255, 6.729e-7
0.256, 6.766e-7
0.257, 6.792e-7
0.258, 6.821e-7
0.259, 6.850e-7
0.260, 6.886e-7
0.261, 6.910e-7
0.262, 6.940e-7
0.263, 6.971e-7
0.264, 7.001e-7
0.265, 7.035e-7
0.266, 7.059e-7
0.267, 7.091e-7
0.268, 7.132e-7
0.269, 7.159e-7
0.270, 7.192e-7
0.271, 7.221e-7
0.272, 7.247e-7
0.273, 7.286e-7
0.274, 7.316e-7
0.275, 7.347e-7
0.276, 7.388e-7
0.277, 7.406e-7
0.278, 7.450e-7
0.279, 7.486e-7
0.280, 7.513e-7
0.281, 7.557e-7
0.282, 7.597e-7
0.283, 7.621e-7
0.284, 7.658e-7
0.285, 7.684e-7
0.286, 7.722e-7
0.287, 7.753e-7
0.288, 7.787e-7
0.289, 7.821e-7
0.290, 7.849e-7
0.291, 7.880e-7
0.292, 7.913e-7
0.293, 7.948e-7
0.294, 7.982e-7
0.295, 8.015e-7
0.296, 8.048e-7
0.297, 8.079e-7
0.298, 8.117e-7
0.299, 8.150e-7
0.300, 8.188e-7
0.301, 8.215e-7
0.302, 8.245e-7
0.303, 8.287e-7
0.304, 8.317e-7
0.305, 8.356e-7
0.306, 8.385e-7
0.307, 8.430e-7
0.308, 8.475e-7
0.309, 8.490e-7
0.310, 8.525e-7
0.311, 8.569e-7
0.312, 8.591e-7
0.313, 8.638e-7
0.314, 8.666e-7
0.315, 8.698e-7
0.316, 8.739e-7
0.317, 8.764e-7
0.318, 8.806e-7
0.319, 8.839e-7
0.320, 8.874e-7
0.321, 8.916e-7
0.322, 8.940e-7
0.323, 8.986e-7
0.324, 9.021e-7
0.325, 9.052e-7
0.326, 9.092e-7
0.327, 9.129e-7
0.328, 9.167e-7
0.329, 9.200e-7
0.330, 9.235e-7
0.331, 9.270e-7
0.332, 9.308e-7
0.333, 9.362e-7
0.334, 9.390e-7
0.335, 9.424e-7
0.336, 9.459e-7
0.337, 9.497e-7
0.338, 9.537e-7
0.339, 9.567e-7
0.340, 9.607e-7
0.341, 9.642e-7
0.342, 9.680e-7
0.343, 9.721e-7
0.344, 9.760e-7
0.345, 9.794e-7
0.346, 9.837e-7
0.347, 9.865e-7
0.348, 9.915e-7
0.349, 9.947e-7
0.350, 9.986e-7
0.351, 1.003e-6
0.352, 1.006e-6
0.353, 1.011e-6
0.354, 1.014e-6
0.355, 1.018e-6
0.356, 1.022e-6
0.357, 1.026e-6
0.358, 1.031e-6
0.359, 1.035e-6
0.360, 1.038e-6
0.361, 1.042e-6
0.362, 1.046e-6
0.363, 1.050e-6
0.364, 1.054e-6
0.365, 1.058e-6
0.366, 1.062e-6
0.367, 1.066e-6
0.368, 1.070e-6
0.369, 1.074e-6
0.370, 1.078e-6
0.371, 1.083e-6
0.372, 1.087e-6
0.373, 1.091e-6
0.374, 1.095e-6
0.375, 1.099e-6
0.376, 1.103e-6
0.377, 1.107e-6
0.378, 1.112e-6
0.379, 1.116e-6
0.380, 1.120e-6
0.381, 1.124e-6
0.382, 1.129e-6
0.383, 1.133e-6
0.384, 1.138e-6
0.385, 1.142e-6
0.386, 1.146e-6
0.387, 1.150e-6
0.388, 1.155e-6
0.389, 1.158e-6
0.390, 1.162e-6
0.391, 1.167e-6
0.392, 1.171e-6
0.393, 1.176e-6
0.394, 1.180e-6
0.395, 1.185e-6
0.396, 1.189e-6
0.397, 1.194e-6
0.398, 1.198e-6
0.399, 1.203e-6
0.400, 1.207e-6
0.401, 1.212e-6
0.402, 1.216e-6
0.403, 1.221e-6
0.404, 1.226e-6
0.405, 1.230e-6
0.406, 1.235e-6
0.407, 1.239e-6
0.408, 1.244e-6
0.409, 1.249e-6
0.410, 1.256e-6
0.411, 1.258e-6
0.412, 1.263e-6
0.413, 1.268e-6
0.414, 1.273e-6
0.415, 1.277e-6
0.416, 1.283e-6
0.417, 1.287e-6
0.418, 1.292e-6
0.419, 1.297e-6
0.420, 1.302e-6
0.421, 1.306e-6
0.422, 1.312e-6
0.423, 1.318e-6
0.424, 1.322e-6
0.425, 1.327e-6
0.426, 1.332e-6
0.427, 1.337e-6
0.428, 1.342e-6
0.429, 1.347e-6
0.430, 1.352e-6
0.431, 1.357e-6
0.432, 1.361e-6
0.433, 1.367e-6
0.434, 1.372e-6
0.435, 1.378e-6
0.436, 1.384e-6
0.437, 1.388e-6
0.438, 1.393e-6
0.439, 1.399e-6
0.440, 1.403e-6
0.441, 1.410e-6
0.442, 1.414e-6
0.443, 1.420e-6
0.444, 1.426e-6
0.445, 1.430e-6
0.446, 1.436e-6
0.447, 1.442e-6
0.448, 1.447e-6
0.449, 1.453e-6
0.450, 1.458e-6
0.451, 1.464e-6
0.452, 1.470e-6
0.453, 1.475e-6
0.454, 1.481e-6
0.455, 1.486e-6
0.456, 1.492e-6
0.457, 1.498e-6
0.458, 1.504e-6
0.459, 1.509e-6
0.460, 1.516e-6
0.461, 1.522e-6
0.462, 1.527e-6
0.463, 1.535e-6
0.464, 1.540e-6
0.465, 1.547e-6
0.466, 1.553e-6
0.467, 1.559e-6
0.468, 1.565e-6
0.469, 1.571e-6
0.470, 1.577e-6
0.471, 1.584e-6
0.472, 1.589e-6
0.473, 1.597e-6
0.474, 1.603e-6
0.475, 1.609e-6
0.476, 1.615e-6
0.477, 1.621e-6
0.478, 1.628e-6
0.479, 1.634e-6
0.480, 1.641e-6
0.481, 1.648e-6
0.482, 1.654e-6
0.483, 1.661e-6
0.484, 1.668e-6
0.485, 1.674e-6
0.486, 1.682e-6
0.487, 1.689e-6
0.488, 1.695e-6
0.489, 1.703e-6
0.490, 1.709e-6
0.491, 1.716e-6
0.492, 1.724e-6
0.493, 1.730e-6
0.494, 1.738e-6
0.495, 1.745e-6
0.496, 1.752e-6
0.497, 1.759e-6
0.498, 1.767e-6
0.499, 1.774e-6
0.500, 1.782e-6
0.501, 1.789e-6
0.502, 1.797e-6
0.503, 1.805e-6
0.504, 1.812e-6
0.505, 1.820e-6
0.506, 1.828e-6
0.507, 1.835e-6
0.508, 1.845e-6
0.509, 1.852e-6
0.510, 1.860e-6
0.511, 1.869e-6
0.512, 1.878e-6
0.513, 1.886e-6
0.514, 1.895e-6
0.515, 1.903e-6
0.516, 1.912e-6
0.517, 1.919e-6
0.518, 1.929e-6
0.519, 1.937e-6
0.520, 1.945e-6
0.521, 1.954e-6
0.522, 1.963e-6
0.523, 1.972e-6
0.524, 1.982e-6
0.525, 1.992e-6
0.526, 2.001e-6
0.527, 2.010e-6
0.528, 2.021e-6
0.529, 2.030e-6
0.530, 2.040e-6
0.531, 2.051e-6
0.532, 2.061e-6
0.533, 2.072e-6
0.534, 2.082e-6
0.535, 2.093e-6
0.536, 2.103e-6
0.537, 2.115e-6
0.538, 2.126e-6
0.539, 2.137e-6
0.540, 2.149e-6
0.541, 2.160e-6
0.542, 2.171e-6
0.543, 2.184e-6
0.544, 2.196e-6
0.545, 2.208e-6
0.546, 2.220e-6
0.547, 2.232e-6
0.548, 2.246e-6
0.549, 2.259e-6
0.550, 2.272e-6
0.551, 2.286e-6
0.552, 2.299e-6
0.553, 2.313e-6
0.554, 2.328e-6
0.555, 2.343e-6
0.556, 2.358e-6
0.557, 2.371e-6
0.558, 2.388e-6
0.559, 2.403e-6
0.560, 2.418e-6
0.561, 2.435e-6
0.562, 2.450e-6
0.563, 2.468e-6
0.564, 2.485e-6
0.565, 2.501e-6
0.566, 2.519e-6
0.567, 2.535e-6
0.568, 2.554e-6
0.569, 2.573e-6
0.570, 2.591e-6
0.571, 2.611e-6
0.572, 2.631e-6
0.573, 2.650e-6
0.574, 2.670e-6
0.575, 2.691e-6
0.576, 2.713e-6
0.577, 2.734e-6
0.578, 2.755e-6
0.579, 2.778e-6
0.580, 2.801e-6
0.581, 2.824e-6
0.582, 2.848e-6
0.583, 2.873e-6
0.584, 2.898e-6
0.585, 2.923e-6
0.586, 2.949e-6
0.587, 2.976e-6
0.588, 3.004e-6
0.589, 3.032e-6
0.590, 3.060e-6
0.591, 3.090e-6
0.592, 3.120e-6
0.593, 3.152e-6
0.594, 3.183e-6
0.595, 3.215e-6
0.596, 3.248e-6
0.597, 3.280e-6
0.598, 3.315e-6
0.599, 3.350e-6
0.600, 3.385e-6
0.601, 3.422e-6
0.602, 3.460e-6
0.603, 3.498e-6
0.604, 3.535e-6
0.605, 3.576e-6
0.606, 3.616e-6
0.607, 3.659e-6
0.608, 3.702e-6
0.609, 3.747e-6
0.610, 3.791e-6
0.611, 3.839e-6
0.612, 3.886e-6
0.613, 3.936e-6
0.614, 3.987e-6
0.615, 4.039e-6
0.616, 4.092e-6
0.617, 4.145e-6
0.618, 4.200e-6
0.619, 4.257e-6
0.620, 4.315e-6
0.621, 4.374e-6
0.622, 4.434e-6
0.623, 4.498e-6
0.624, 4.561e-6
0.625, 4.627e-6
0.626, 4.694e-6
0.627, 4.765e-6
0.628, 4.836e-6
0.629, 4.907e-6
0.630, 4.982e-6
0.631, 5.058e-6
0.632, 5.133e-6
0.633, 5.213e-6
0.634, 5.294e-6
0.635, 5.378e-6
0.636, 5.465e-6
0.637, 5.553e-6
0.638, 5.644e-6
0.639, 5.736e-6
0.640, 5.832e-6
0.641, 5.928e-6
0.642, 6.027e-6
0.643, 6.128e-6
0.644, 6.233e-6
0.645, 6.340e-6
0.646, 6.449e-6
0.647, 6.561e-6
0.648, 6.673e-6
0.649, 6.790e-6
0.650, 6.908e-6
0.651, 7.032e-6
0.652, 7.158e-6
0.653, 7.286e-6
0.654, 7.417e-6
0.655, 7.551e-6
0.656, 7.687e-6
0.657, 7.828e-6
0.658, 7.971e-6
0.659, 8.118e-6
0.660, 8.267e-6
0.661, 8.418e-6
0.662, 8.574e-6
0.663, 8.735e-6
0.664, 8.898e-6
0.665, 9.064e-6
0.666, 9.236e-6
0.667, 9.410e-6
0.668, 9.588e-6
0.669, 9.767e-6
0.670, 9.949e-6
0.671, 1.014e-5
0.672, 1.033e-5
0.673, 1.053e-5
0.674, 1.073e-5
0.675, 1.093e-5
0.676, 1.114e-5
0.677, 1.135e-5
0.678, 1.156e-5
0.679, 1.178e-5
0.680, 1.201e-5
0.681, 1.223e-5
0.682, 1.246e-5
0.683, 1.270e-5
0.684, 1.294e-5
0.685, 1.318e-5
0.686, 1.343e-5
0.687, 1.369e-5
0.688, 1.394e-5
0.689, 1.420e-5
0.690, 1.447e-5
0.691, 1.474e-5
0.692, 1.502e-5
0.693, 1.529e-5
0.694, 1.558e-5
0.695, 1.587e-5
0.696, 1.616e-5
0.697, 1.645e-5
0.698, 1.675e-5
0.699, 1.706e-5
0.700, 1.737e-5
0.701, 1.768e-5
0.702, 1.800e-5
0.703, 1.832e-5
0.704, 1.865e-5
0.705, 1.898e-5
0.706, 1.932e-5
0.707, 1.966e-5
0.708, 2.001e-5
0.709, 2.036e-5
0.710, 2.071e-5
0.711, 2.107e-5
0.712, 2.143e-5
0.713, 2.180e-5
0.714, 2.217e-5
0.715, 2.255e-5
0.716, 2.293e-5
0.717, 2.332e-5
0.718, 2.371e-5
0.719, 2.411e-5
0.720, 2.450e-5
0.721, 2.491e-5
0.722, 2.532e-5
0.723, 2.573e-5
0.724, 2.614e-5
0.725, 2.656e-5
0.726, 2.699e-5
0.727, 2.741e-5
0.728, 2.785e-5
0.729, 2.829e-5
0.730, 2.873e-5
0.731, 2.917e-5
0.732, 2.962e-5
0.733, 3.007e-5
0.734, 3.053e-5
0.735, 3.099e-5
0.736, 3.146e-5
0.737, 3.193e-5
0.738, 3.240e-5
0.739, 3.288e-5
0.740, 3.336e-5
0.741, 3.384e-5
0.742, 3.433e-5
0.743, 3.483e-5
0.744, 3.532e-5
0.745, 3.582e-5
0.746, 3.633e-5
0.747, 3.683e-5
0.748, 3.734e-5
0.749, 3.786e-5
0.750, 3.837e-5
0.751, 3.890e-5
0.752, 3.942e-5
0.753, 3.995e-5
0.754, 4.048e-5
0.755, 4.102e-5
0.756, 4.155e-5
0.757, 4.210e-5
0.758, 4.264e-5
0.759, 4.319e-5
0.760, 4.374e-5
0.761, 4.430e-5
0.762, 4.485e-5
0.763, 4.541e-5
0.764, 4.598e-5
0.765, 4.654e-5
0.766, 4.711e-5
0.767, 4.768e-5
0.768, 4.826e-5
0.769, 4.884e-5
0.770, 4.942e-5
0.771, 5.000e-5
0.772, 5.059e-5
0.773, 5.118e-5
0.774, 5.177e-5
0.775, 5.236e-5
0.776, 5.296e-5
0.777, 5.356e-5
0.778, 5.416e-5
0.779, 5.476e-5
0.780, 5.537e-5
0.781, 5.598e-5
0.782, 5.658e-5
0.783, 5.720e-5
0.784, 5.781e-5
0.785, 5.843e-5
0.786, 5.904e-5
0.787, 5.967e-5
0.788, 6.029e-5
0.789, 6.091e-5
0.790, 6.154e-5
0.791, 6.216e-5
0.792, 6.279e-5
0.793, 6.343e-5
0.794, 6.406e-5
0.795, 6.470e-5
0.796, 6.533e-5
0.797, 6.597e-5
0.798, 6.661e-5
0.799, 6.725e-5
0.800, 6.770e-5
0.799, 6.718e-5
0.798, 6.632e-5
0.797, 6.543e-5
0.796, 6.455e-5
0.795, 6.368e-5
0.794, 6.282e-5
0.793, 6.197e-5
0.792, 6.113e-5
0.791, 6.030e-5
0.790, 5.948e-5
0.789, 5.867e-5
0.788, 5.786e-5
0.787, 5.707e-5
0.786, 5.628e-5
0.785, 5.550e-5
0.784, 5.473e-5
0.783, 5.397e-5
0.782, 5.321e-5
0.781, 5.246e-5
0.780, 5.172e-5
0.779, 5.099e-5
0.778, 5.026e-5
0.777, 4.954e-5
0.776, 4.882e-5
0.775, 4.811e-5
0.774, 4.742e-5
0.773, 4.672e-5
0.772, 4.603e-5
0.771, 4.535e-5
0.770, 4.468e-5
0.769, 4.401e-5
0.768, 4.335e-5
0.767, 4.269e-5
0.766, 4.204e-5
0.765, 4.140e-5
0.764, 4.076e-5
0.763, 4.013e-5
0.762, 3.951e-5
0.761, 3.889e-5
0.760, 3.828e-5
0.759, 3.768e-5
0.758, 3.708e-5
0.757, 3.648e-5
0.756, 3.590e-5
0.755, 3.531e-5
0.754, 3.474e-5
0.753, 3.417e-5
0.752, 3.360e-5
0.751, 3.305e-5
0.750, 3.250e-5
0.749, 3.195e-5
0.748, 3.141e-5
0.747, 3.087e-5
0.746, 3.035e-5
0.745, 2.982e-5
0.744, 2.931e-5
0.743, 2.880e-5
0.742, 2.829e-5
0.741, 2.779e-5
0.740, 2.729e-5
0.739, 2.681e-5
0.738, 2.632e-5
0.737, 2.585e-5
0.736, 2.538e-5
0.735, 2.491e-5
0.734, 2.445e-5
0.733, 2.400e-5
0.732, 2.355e-5
0.731, 2.310e-5
0.730, 2.266e-5
0.729, 2.224e-5
0.728, 2.181e-5
0.727, 2.139e-5
0.726, 2.097e-5
0.725, 2.056e-5
0.724, 2.016e-5
0.723, 1.976e-5
0.722, 1.937e-5
0.721, 1.898e-5
0.720, 1.860e-5
0.719, 1.822e-5
0.718, 1.785e-5
0.717, 1.748e-5
0.716, 1.712e-5
0.715, 1.676e-5
0.714, 1.641e-5
0.713, 1.607e-5
0.712, 1.573e-5
0.711, 1.539e-5
0.710, 1.506e-5
0.709, 1.473e-5
0.708, 1.442e-5
0.707, 1.410e-5
0.706, 1.379e-5
0.705, 1.349e-5
0.704, 1.319e-5
0.703, 1.290e-5
0.702, 1.261e-5
0.701, 1.232e-5
0.700, 1.204e-5
0.699, 1.177e-5
0.698, 1.150e-5
0.697, 1.123e-5
0.696, 1.097e-5
0.695, 1.072e-5
0.694, 1.047e-5
0.693, 1.022e-5
0.692, 9.977e-6
0.691, 9.740e-6
0.690, 9.507e-6
0.689, 9.276e-6
0.688, 9.052e-6
0.687, 8.832e-6
0.686, 8.616e-6
0.685, 8.403e-6
0.684, 8.198e-6
0.683, 7.996e-6
0.682, 7.795e-6
0.681, 7.600e-6
0.680, 7.409e-6
0.679, 7.223e-6
0.678, 7.038e-6
0.677, 6.858e-6
0.676, 6.684e-6
0.675, 6.514e-6
0.674, 6.346e-6
0.673, 6.179e-6
0.672, 6.018e-6
0.671, 5.862e-6
0.670, 5.708e-6
0.669, 5.558e-6
0.668, 5.409e-6
0.667, 5.265e-6
0.666, 5.125e-6
0.665, 4.988e-6
0.664, 4.855e-6
0.663, 4.723e-6
0.662, 4.594e-6
0.661, 4.469e-6
0.660, 4.347e-6
0.659, 4.229e-6
0.658, 4.112e-6
0.657, 3.999e-6
0.656, 3.887e-6
0.655, 3.777e-6
0.654, 3.673e-6
0.653, 3.570e-6
0.652, 3.472e-6
0.651, 3.375e-6
0.650, 3.279e-6
0.649, 3.186e-6
0.648, 3.095e-6
0.647, 3.005e-6
0.646, 2.920e-6
0.645, 2.836e-6
0.644, 2.755e-6
0.643, 2.676e-6
0.642, 2.597e-6
0.641, 2.522e-6
0.640, 2.447e-6
0.639, 2.376e-6
0.638, 2.305e-6
0.637, 2.237e-6
0.636, 2.171e-6
0.635, 2.107e-6
0.634, 2.044e-6
0.633, 1.983e-6
0.632, 1.925e-6
0.631, 1.868e-6
0.630, 1.811e-6
0.629, 1.757e-6
0.628, 1.704e-6
0.627, 1.652e-6
0.626, 1.602e-6
0.625, 1.552e-6
0.624, 1.504e-6
0.623, 1.457e-6
0.622, 1.412e-6
0.621, 1.368e-6
0.620, 1.324e-6
0.619, 1.284e-6
0.618, 1.244e-6
0.617, 1.204e-6
0.616, 1.166e-6
0.615, 1.129e-6
0.614, 1.093e-6
0.613, 1.058e-6
0.612, 1.024e-6
0.611, 9.912e-7
0.610, 9.581e-7
0.609, 9.277e-7
0.608, 8.972e-7
0.607, 8.666e-7
0.606, 8.389e-7
0.605, 8.096e-7
0.604, 7.831e-7
0.603, 7.563e-7
0.602, 7.287e-7
0.601, 7.036e-7
0.600, 6.796e-7
0.599, 6.557e-7
0.598, 6.328e-7
0.597, 6.097e-7
0.596, 5.885e-7
0.595, 5.669e-7
0.594, 5.465e-7
0.593, 5.265e-7
0.592, 5.069e-7
0.591, 4.872e-7
0.590, 4.690e-7
0.589, 4.509e-7
0.588, 4.328e-7
0.587, 4.161e-7
0.586, 3.994e-7
0.585, 3.829e-7
0.584, 3.688e-7
0.583, 3.545e-7
0.582, 3.401e-7
0.581, 3.257e-7
0.580, 3.110e-7
0.579, 2.975e-7
0.578, 2.843e-7
0.577, 2.709e-7
0.576, 2.582e-7
0.575, 2.451e-7
0.574, 2.341e-7
0.573, 2.217e-7
0.572, 2.094e-7
0.571, 1.992e-7
0.570, 1.876e-7
0.569, 1.774e-7
0.568, 1.672e-7
0.567, 1.561e-7
0.566, 1.471e-7
0.565, 1.364e-7
0.564, 1.272e-7
0.563, 1.176e-7
0.562, 1.085e-7
0.561, 1.003e-7
0.560, 9.130e-8
0.559, 8.336e-8
0.558, 7.533e-8
0.557, 6.647e-8
0.556, 5.857e-8
0.555, 5.098e-8
0.554, 4.366e-8
0.553, 3.683e-8
0.552, 2.921e-8
0.551, 2.185e-8
0.550, 1.497e-8
0.549, 8.929e-9
0.548, 1.861e-9
0.547, -4.725e-9
0.546, -1.138e-8
0.545, -1.703e-8
0.544, -2.410e-8
0.543, -3.097e-8
0.542, -3.634e-8
0.541, -4.364e-8
0.540, -4.903e-8
0.539, -5.362e-8
0.538, -6.012e-8
0.537, -6.620e-8
0.536, -7.058e-8
0.535, -7.633e-8
0.534, -8.038e-8
0.533, -8.558e-8
0.532, -9.099e-8
0.531, -9.524e-8
0.530, -1.005e-7
0.529, -1.040e-7
0.528, -1.085e-7
0.527, -1.142e-7
0.526, -1.178e-7
0.525, -1.229e-7
0.524, -1.261e-7
0.523, -1.304e-7
0.522, -1.351e-7
0.521, -1.385e-7
0.520, -1.433e-7
0.519, -1.472e-7
0.518, -1.502e-7
0.517, -1.546e-7
0.516, -1.585e-7
0.515, -1.619e-7
0.514, -1.654e-7
0.513, -1.695e-7
0.512, -1.749e-7
0.511, -1.776e-7
0.510, -1.801e-7
0.509, -1.836e-7
0.508, -1.869e-7
0.507, -1.903e-7
0.506, -1.944e-7
0.505, -1.973e-7
0.504, -1.994e-7
0.503, -2.034e-7
0.502, -2.064e-7
0.501, -2.093e-7
0.500, -2.130e-7
0.499, -2.155e-7
0.498, -2.186e-7
0.497, -2.212e-7
0.496, -2.247e-7
0.495, -2.278e-7
0.494, -2.305e-7
0.493, -2.340e-7
0.492, -2.365e-7
0.491, -2.387e-7
0.490, -2.423e-7
0.489, -2.442e-7
0.488, -2.464e-7
0.487, -2.506e-7
0.486, -2.533e-7
0.485, -2.561e-7
0.484, -2.577e-7
0.483, -2.606e-7
0.482, -2.636e-7
0.481, -2.658e-7
0.480, -2.689e-7
0.479, -2.710e-7
0.478, -2.734e-7
0.477, -2.766e-7
0.476, -2.788e-7
0.475, -2.814e-7
0.474, -2.850e-7
0.473, -2.875e-7
0.472, -2.899e-7
0.471, -2.922e-7
0.470, -2.940e-7
0.469, -2.974e-7
0.468, -2.997e-7
0.467, -3.019e-7
0.466, -3.047e-7
0.465, -3.073e-7
0.464, -3.090e-7
0.463, -3.132e-7
0.462, -3.146e-7
0.461, -3.180e-7
0.460, -3.208e-7
0.459, -3.222e-7
0.458, -3.252e-7
0.457, -3.271e-7
0.456, -3.290e-7
0.455, -3.319e-7
0.454, -3.338e-7
0.453, -3.364e-7
0.452, -3.377e-7
0.451, -3.396e-7
0.450, -3.422e-7
0.449, -3.440e-7
0.448, -3.466e-7
0.447, -3.496e-7
0.446, -3.514e-7
0.445, -3.544e-7
0.444, -3.564e-7
0.443, -3.586e-7
0.442, -3.605e-7
0.441, -3.630e-7
0.440, -3.651e-7
0.439, -3.680e-7
0.438, -3.693e-7
0.437, -3.715e-7
0.436, -3.746e-7
0.435, -3.773e-7
0.434, -3.793e-7
0.433, -3.807e-7
0.432, -3.823e-7
0.431, -3.846e-7
0.430, -3.864e-7
0.429, -3.882e-7
0.428, -3.906e-7
0.427, -3.917e-7
0.426, -3.946e-7
0.425, -3.966e-7
0.424, -3.988e-7
0.423, -4.012e-7
0.422, -4.032e-7
0.421, -4.055e-7
0.420, -4.078e-7
0.419, -4.094e-7
0.418, -4.118e-7
0.417, -4.134e-7
0.416, -4.156e-7
0.415, -4.178e-7
0.414, -4.192e-7
0.413, -4.215e-7
0.412, -4.240e-7
0.411, -4.255e-7
0.410, -4.293e-7
0.409, -4.331e-7
0.408, -4.331e-7
0.407, -4.351e-7
0.406, -4.370e-7
0.405, -4.382e-7
0.404, -4.409e-7
0.403, -4.428e-7
0.402, -4.453e-7
0.401, -4.466e-7
0.400, -4.492e-7
0.399, -4.516e-7
0.398, -4.535e-7
0.397, -4.561e-7
0.396, -4.577e-7
0.395, -4.591e-7
0.394, -4.615e-7
0.393, -4.637e-7
0.392, -4.651e-7
0.391, -4.683e-7
0.390, -4.692e-7
0.389, -4.724e-7
0.388, -4.752e-7
0.387, -4.772e-7
0.386, -4.792e-7
0.385, -4.816e-7
0.384, -4.838e-7
0.383, -4.857e-7
0.382, -4.867e-7
0.381, -4.890e-7
0.380, -4.913e-7
0.379, -4.924e-7
0.378, -4.950e-7
0.377, -4.967e-7
0.376, -4.986e-7
0.375, -5.006e-7
0.374, -5.026e-7
0.373, -5.056e-7
0.372, -5.076e-7
0.371, -5.101e-7
0.370, -5.122e-7
0.369, -5.142e-7
0.368, -5.156e-7
0.367, -5.181e-7
0.366, -5.193e-7
0.365, -5.221e-7
0.364, -5.240e-7
0.363, -5.260e-7
0.362, -5.280e-7
0.361, -5.296e-7
0.360, -5.318e-7
0.359, -5.345e-7
0.358, -5.369e-7
0.357, -5.387e-7
0.356, -5.407e-7
0.355, -5.425e-7
0.354, -5.451e-7
0.353, -5.471e-7
0.352, -5.497e-7
0.351, -5.522e-7
0.350, -5.540e-7
0.349, -5.560e-7
0.348, -5.587e-7
0.347, -5.607e-7
0.346, -5.632e-7
0.345, -5.654e-7
0.344, -5.676e-7
0.343, -5.697e-7
0.342, -5.716e-7
0.341, -5.741e-7
0.340, -5.762e-7
0.339, -5.771e-7
0.338, -5.803e-7
0.337, -5.824e-7
0.336, -5.846e-7
0.335, -5.867e-7
0.334, -5.885e-7
0.333, -5.918e-7
0.332, -5.942e-7
0.331, -5.957e-7
0.330, -5.975e-7
0.329, -5.993e-7
0.328, -6.015e-7
0.327, -6.044e-7
0.326, -6.057e-7
0.325, -6.080e-7
0.324, -6.107e-7
0.323, -6.120e-7
0.322, -6.149e-7
0.321, -6.168e-7
0.320, -6.186e-7
0.319, -6.221e-7
0.318, -6.235e-7
0.317, -6.257e-7
0.316, -6.284e-7
0.315, -6.305e-7
0.314, -6.332e-7
0.313, -6.347e-7
0.312, -6.369e-7
0.311, -6.394e-7
0.310, -6.416e-7
0.309, -6.443e-7
0.308, -6.465e-7
0.307, -6.511e-7
0.306, -6.521e-7
0.305, -6.541e-7
0.304, -6.560e-7
0.303, -6.590e-7
0.302, -6.611e-7
0.301, -6.625e-7
0.300, -6.654e-7
0.299, -6.673e-7
0.298, -6.702e-7
0.297, -6.719e-7
0.296, -6.740e-7
0.295, -6.772e-7
0.294, -6.794e-7
0.293, -6.814e-7
0.292, -6.841e-7
0.291, -6.861e-7
0.290, -6.889e-7
0.289, -6.915e-7
0.288, -6.935e-7
0.287, -6.960e-7
0.286, -6.977e-7
0.285, -7.007e-7
0.284, -7.033e-7
0.283, -7.050e-7
0.282, -7.078e-7
0.281, -7.104e-7
0.280, -7.122e-7
0.279, -7.148e-7
0.278, -7.162e-7
0.277, -7.193e-7
0.276, -7.217e-7
0.275, -7.240e-7
0.274, -7.268e-7
0.273, -7.289e-7
0.272, -7.316e-7
0.271, -7.341e-7
0.270, -7.361e-7
0.269, -7.394e-7
0.268, -7.415e-7
0.267, -7.439e-7
0.266, -7.466e-7
0.265, -7.491e-7
0.264, -7.516e-7
0.263, -7.540e-7
0.262, -7.568e-7
0.261, -7.592e-7
0.260, -7.618e-7
0.259, -7.640e-7
0.258, -7.668e-7
0.257, -7.693e-7
0.256, -7.726e-7
0.255, -7.749e-7
0.254, -7.772e-7
0.253, -7.799e-7
0.252, -7.830e-7
0.251, -7.847e-7
0.250, -7.882e-7
0.249, -7.900e-7
0.248, -7.930e-7
0.247, -7.964e-7
0.246, -7.980e-7
0.245, -8.009e-7
0.244, -8.036e-7
0.243, -8.062e-7
0.242, -8.096e-7
0.241, -8.117e-7
0.240, -8.141e-7
0.239, -8.172e-7
0.238, -8.202e-7
0.237, -8.228e-7
0.236, -8.274e-7
0.235, -8.294e-7
0.234, -8.321e-7
0.233, -8.344e-7
0.232, -8.376e-7
0.231, -8.409e-7
0.230, -8.442e-7
0.229, -8.463e-7
0.228, -8.494e-7
0.227, -8.515e-7
0.226, -8.551e-7
0.225, -8.579e-7
0.224, -8.606e-7
0.223, -8.635e-7
0.222, -8.660e-7
0.221, -8.688e-7
0.220, -8.718e-7
0.219, -8.746e-7
0.218, -8.780e-7
0.217, -8.811e-7
0.216, -8.834e-7
0.215, -8.870e-7
0.214, -8.888e-7
0.213, -8.922e-7
0.212, -8.949e-7
0.211, -8.980e-7
0.210, -9.013e-7
0.209, -9.039e-7
0.208, -9.067e-7
0.207, -9.105e-7
0.206, -9.129e-7
0.205, -9.165e-7
0.204, -9.201e-7
0.203, -9.224e-7
0.202, -9.261e-7
0.201, -9.287e-7
0.200, -9.314e-7
0.199, -9.353e-7
0.198, -9.374e-7
0.197, -9.410e-7
0.196, -9.441e-7
0.195, -9.466e-7
0.194, -9.507e-7
0.193, -9.531e-7
0.192, -9.570e-7
0.191, -9.605e-7
0.190, -9.627e-7
0.189, -9.669e-7
0.188, -9.697e-7
0.187, -9.722e-7
0.186, -9.761e-7
0.185, -9.792e-7
0.184, -9.823e-7
0.183, -9.858e-7
0.182, -9.892e-7
0.181, -9.923e-7
0.180, -9.956e-7
0.179, -9.993e-7
0.178, -1.003e-6
0.177, -1.006e-6
0.176, -1.008e-6
0.175, -1.013e-6
0.174, -1.015e-6
0.173, -1.018e-6
0.172, -1.023e-6
0.171, -1.025e-6
0.170, -1.030e-6
0.169, -1.033e-6
0.168, -1.036e-6
0.167, -1.040e-6
0.166, -1.043e-6
0.165, -1.047e-6
0.164, -1.051e-6
0.163, -1.054e-6
0.162, -1.058e-6
0.161, -1.061e-6
0.160, -1.065e-6
0.159, -1.069e-6
0.158, -1.072e-6
0.157, -1.076e-6
0.156, -1.079e-6
0.155, -1.083e-6
0.154, -1.087e-6
0.153, -1.091e-6
0.152, -1.095e-6
0.151, -1.099e-6
0.150, -1.102e-6
0.149, -1.106e-6
0.148, -1.110e-6
0.147, -1.114e-6
0.146, -1.117e-6
0.145, -1.121e-6
0.144, -1.126e-6
0.143, -1.129e-6
0.142, -1.134e-6
0.141, -1.137e-6
0.140, -1.141e-6
0.139, -1.145e-6
0.138, -1.149e-6
0.137, -1.153e-6
0.136, -1.157e-6
0.135, -1.162e-6
0.134, -1.165e-6
0.133, -1.170e-6
0.132, -1.174e-6
0.131, -1.178e-6
0.130, -1.183e-6
0.129, -1.187e-6
0.128, -1.192e-6
0.127, -1.197e-6
0.126, -1.200e-6
0.125, -1.204e-6
0.124, -1.209e-6
0.123, -1.212e-6
0.122, -1.217e-6
0.121, -1.220e-6
0.120, -1.224e-6
0.119, -1.230e-6
0.118, -1.234e-6
0.117, -1.239e-6
0.116, -1.243e-6
0.115, -1.248e-6
0.114, -1.253e-6
0.113, -1.257e-6
0.112, -1.263e-6
0.111, -1.267e-6
0.110, -1.272e-6
0.109, -1.277e-6
0.108, -1.282e-6
0.107, -1.287e-6
0.106, -1.291e-6
0.105, -1.296e-6
0.104, -1.302e-6
0.103, -1.307e-6
0.102, -1.314e-6
0.101, -1.318e-6
0.100, -1.324e-6
0.099, -1.329e-6
0.098, -1.334e-6
0.097, -1.339e-6
0.096, -1.344e-6
0.095, -1.350e-6
0.094, -1.355e-6
0.093, -1.361e-6
0.092, -1.367e-6
0.091, -1.372e-6
0.090, -1.378e-6
0.089, -1.384e-6
0.088, -1.390e-6
0.087, -1.396e-6
0.086, -1.401e-6
0.085, -1.407e-6
0.084, -1.414e-6
0.083, -1.419e-6
0.082, -1.426e-6
0.081, -1.431e-6
0.080, -1.438e-6
0.079, -1.444e-6
0.078, -1.451e-6
0.077, -1.458e-6
0.076, -1.464e-6
0.075, -1.470e-6
0.074, -1.478e-6
0.073, -1.484e-6
0.072, -1.491e-6
0.071, -1.498e-6
0.070, -1.504e-6
0.069, -1.511e-6
0.068, -1.518e-6
0.067, -1.526e-6
0.066, -1.533e-6
0.065, -1.540e-6
0.064, -1.548e-6
0.063, -1.556e-6
0.062, -1.563e-6
0.061, -1.570e-6
0.060, -1.579e-6
0.059, -1.585e-6
0.058, -1.594e-6
0.057, -1.602e-6
0.056, -1.610e-6
0.055, -1.619e-6
0.054, -1.627e-6
0.053, -1.636e-6
0.052, -1.645e-6
0.051, -1.653e-6
0.050, -1.662e-6
0.049, -1.670e-6
0.048, -1.679e-6
0.047, -1.688e-6
0.046, -1.696e-6
0.045, -1.706e-6
0.044, -1.715e-6
0.043, -1.724e-6
0.042, -1.734e-6
0.041, -1.743e-6
0.040, -1.752e-6
0.039, -1.763e-6
0.038, -1.772e-6
0.037, -1.782e-6
0.036, -1.792e-6
0.035, -1.802e-6
0.034, -1.813e-6
0.033, -1.822e-6
0.032, -1.834e-6
0.031, -1.844e-6
0.030, -1.854e-6
0.029, -1.866e-6
0.028, -1.876e-6
0.027, -1.888e-6
0.026, -1.899e-6
0.025, -1.911e-6
0.024, -1.922e-6
0.023, -1.933e-6
0.022, -1.945e-6
0.021, -1.956e-6
0.020, -1.968e-6
0.019, -1.981e-6
0.018, -1.993e-6
0.017, -2.005e-6
0.016, -2.017e-6
0.015, -2.030e-6
0.014, -2.042e-6
0.013, -2.056e-6
0.012, -2.069e-6
0.011, -2.082e-6
0.010, -2.095e-6
0.009, -2.109e-6
0.008, -2.122e-6
0.007, -2.137e-6
0.006, -2.149e-6
0.005, -2.164e-6
0.004, -2.178e-6
0.003, -2.192e-6
0.002, -2.207e-6
0.001, -2.221e-6
