Mar. 17, 2023   21:03:31
Cyclic Voltammetry
File: f:\ch3cooh\20230317\blank-cv-1.csv
Data Source:  Experiment
Instrument Model:  CHI760E
Header: 
Note: 

Init E (V) = 0
High E (V) = 0.8
Low E (V) = 0
Init P/N = P
Scan Rate (V/s) = 0.1
Segment = 4
Sample Interval (V) = 0.001
Quiet Time (sec) = 2
Sensitivity (A/V) = 1e-5

Results:

Channel 1:
Segment 1:

Segment 2:

Segment 3:

Segment 4:

Potential/V, Current/A

0.000, -1.054e-7
0.001, -3.676e-8
0.002, 7.777e-10
0.003, 2.280e-8
0.004, 3.861e-8
0.005, 5.051e-8
0.006, 6.094e-8
0.007, 6.972e-8
0.008, 7.724e-8
0.009, 8.446e-8
0.010, 9.027e-8
0.011, 9.624e-8
0.012, 1.015e-7
0.013, 1.065e-7
0.014, 1.115e-7
0.015, 1.157e-7
0.016, 1.195e-7
0.017, 1.237e-7
0.018, 1.271e-7
0.019, 1.307e-7
0.020, 1.344e-7
0.021, 1.374e-7
0.022, 1.407e-7
0.023, 1.437e-7
0.024, 1.466e-7
0.025, 1.490e-7
0.026, 1.520e-7
0.027, 1.545e-7
0.028, 1.572e-7
0.029, 1.591e-7
0.030, 1.619e-7
0.031, 1.641e-7
0.032, 1.663e-7
0.033, 1.684e-7
0.034, 1.706e-7
0.035, 1.728e-7
0.036, 1.743e-7
0.037, 1.763e-7
0.038, 1.780e-7
0.039, 1.800e-7
0.040, 1.817e-7
0.041, 1.837e-7
0.042, 1.855e-7
0.043, 1.868e-7
0.044, 1.884e-7
0.045, 1.898e-7
0.046, 1.914e-7
0.047, 1.931e-7
0.048, 1.943e-7
0.049, 1.958e-7
0.050, 1.971e-7
0.051, 1.990e-7
0.052, 2.006e-7
0.053, 2.011e-7
0.054, 2.027e-7
0.055, 2.039e-7
0.056, 2.048e-7
0.057, 2.063e-7
0.058, 2.070e-7
0.059, 2.083e-7
0.060, 2.097e-7
0.061, 2.103e-7
0.062, 2.117e-7
0.063, 2.123e-7
0.064, 2.136e-7
0.065, 2.148e-7
0.066, 2.154e-7
0.067, 2.164e-7
0.068, 2.172e-7
0.069, 2.185e-7
0.070, 2.190e-7
0.071, 2.201e-7
0.072, 2.209e-7
0.073, 2.219e-7
0.074, 2.226e-7
0.075, 2.233e-7
0.076, 2.241e-7
0.077, 2.255e-7
0.078, 2.261e-7
0.079, 2.269e-7
0.080, 2.275e-7
0.081, 2.277e-7
0.082, 2.287e-7
0.083, 2.292e-7
0.084, 2.302e-7
0.085, 2.302e-7
0.086, 2.309e-7
0.087, 2.321e-7
0.088, 2.324e-7
0.089, 2.331e-7
0.090, 2.335e-7
0.091, 2.342e-7
0.092, 2.352e-7
0.093, 2.350e-7
0.094, 2.360e-7
0.095, 2.365e-7
0.096, 2.370e-7
0.097, 2.377e-7
0.098, 2.378e-7
0.099, 2.387e-7
0.100, 2.392e-7
0.101, 2.391e-7
0.102, 2.404e-7
0.103, 2.411e-7
0.104, 2.412e-7
0.105, 2.413e-7
0.106, 2.417e-7
0.107, 2.426e-7
0.108, 2.428e-7
0.109, 2.429e-7
0.110, 2.434e-7
0.111, 2.438e-7
0.112, 2.443e-7
0.113, 2.447e-7
0.114, 2.453e-7
0.115, 2.455e-7
0.116, 2.458e-7
0.117, 2.461e-7
0.118, 2.466e-7
0.119, 2.459e-7
0.120, 2.467e-7
0.121, 2.472e-7
0.122, 2.480e-7
0.123, 2.481e-7
0.124, 2.486e-7
0.125, 2.488e-7
0.126, 2.488e-7
0.127, 2.496e-7
0.128, 2.499e-7
0.129, 2.505e-7
0.130, 2.501e-7
0.131, 2.507e-7
0.132, 2.514e-7
0.133, 2.508e-7
0.134, 2.512e-7
0.135, 2.517e-7
0.136, 2.518e-7
0.137, 2.521e-7
0.138, 2.523e-7
0.139, 2.526e-7
0.140, 2.528e-7
0.141, 2.529e-7
0.142, 2.536e-7
0.143, 2.535e-7
0.144, 2.536e-7
0.145, 2.540e-7
0.146, 2.541e-7
0.147, 2.545e-7
0.148, 2.546e-7
0.149, 2.549e-7
0.150, 2.547e-7
0.151, 2.550e-7
0.152, 2.554e-7
0.153, 2.557e-7
0.154, 2.561e-7
0.155, 2.561e-7
0.156, 2.560e-7
0.157, 2.563e-7
0.158, 2.562e-7
0.159, 2.568e-7
0.160, 2.566e-7
0.161, 2.568e-7
0.162, 2.575e-7
0.163, 2.569e-7
0.164, 2.576e-7
0.165, 2.567e-7
0.166, 2.572e-7
0.167, 2.578e-7
0.168, 2.573e-7
0.169, 2.579e-7
0.170, 2.578e-7
0.171, 2.582e-7
0.172, 2.589e-7
0.173, 2.585e-7
0.174, 2.589e-7
0.175, 2.590e-7
0.176, 2.587e-7
0.177, 2.595e-7
0.178, 2.588e-7
0.179, 2.594e-7
0.180, 2.600e-7
0.181, 2.595e-7
0.182, 2.604e-7
0.183, 2.599e-7
0.184, 2.602e-7
0.185, 2.602e-7
0.186, 2.603e-7
0.187, 2.605e-7
0.188, 2.606e-7
0.189, 2.604e-7
0.190, 2.607e-7
0.191, 2.611e-7
0.192, 2.614e-7
0.193, 2.612e-7
0.194, 2.610e-7
0.195, 2.612e-7
0.196, 2.615e-7
0.197, 2.618e-7
0.198, 2.616e-7
0.199, 2.619e-7
0.200, 2.616e-7
0.201, 2.617e-7
0.202, 2.624e-7
0.203, 2.621e-7
0.204, 2.621e-7
0.205, 2.627e-7
0.206, 2.624e-7
0.207, 2.631e-7
0.208, 2.626e-7
0.209, 2.629e-7
0.210, 2.627e-7
0.211, 2.629e-7
0.212, 2.634e-7
0.213, 2.630e-7
0.214, 2.636e-7
0.215, 2.635e-7
0.216, 2.632e-7
0.217, 2.638e-7
0.218, 2.638e-7
0.219, 2.637e-7
0.220, 2.641e-7
0.221, 2.638e-7
0.222, 2.643e-7
0.223, 2.642e-7
0.224, 2.644e-7
0.225, 2.648e-7
0.226, 2.643e-7
0.227, 2.649e-7
0.228, 2.647e-7
0.229, 2.649e-7
0.230, 2.649e-7
0.231, 2.653e-7
0.232, 2.656e-7
0.233, 2.654e-7
0.234, 2.655e-7
0.235, 2.656e-7
0.236, 2.654e-7
0.237, 2.656e-7
0.238, 2.657e-7
0.239, 2.658e-7
0.240, 2.661e-7
0.241, 2.659e-7
0.242, 2.666e-7
0.243, 2.664e-7
0.244, 2.669e-7
0.245, 2.664e-7
0.246, 2.665e-7
0.247, 2.670e-7
0.248, 2.667e-7
0.249, 2.668e-7
0.250, 2.665e-7
0.251, 2.662e-7
0.252, 2.666e-7
0.253, 2.662e-7
0.254, 2.665e-7
0.255, 2.665e-7
0.256, 2.675e-7
0.257, 2.681e-7
0.258, 2.682e-7
0.259, 2.682e-7
0.260, 2.686e-7
0.261, 2.681e-7
0.262, 2.688e-7
0.263, 2.687e-7
0.264, 2.686e-7
0.265, 2.688e-7
0.266, 2.687e-7
0.267, 2.691e-7
0.268, 2.692e-7
0.269, 2.696e-7
0.270, 2.696e-7
0.271, 2.695e-7
0.272, 2.701e-7
0.273, 2.699e-7
0.274, 2.697e-7
0.275, 2.701e-7
0.276, 2.702e-7
0.277, 2.707e-7
0.278, 2.702e-7
0.279, 2.711e-7
0.280, 2.708e-7
0.281, 2.711e-7
0.282, 2.718e-7
0.283, 2.713e-7
0.284, 2.717e-7
0.285, 2.715e-7
0.286, 2.714e-7
0.287, 2.719e-7
0.288, 2.716e-7
0.289, 2.724e-7
0.290, 2.722e-7
0.291, 2.721e-7
0.292, 2.726e-7
0.293, 2.724e-7
0.294, 2.728e-7
0.295, 2.730e-7
0.296, 2.728e-7
0.297, 2.735e-7
0.298, 2.733e-7
0.299, 2.730e-7
0.300, 2.736e-7
0.301, 2.734e-7
0.302, 2.744e-7
0.303, 2.742e-7
0.304, 2.741e-7
0.305, 2.746e-7
0.306, 2.743e-7
0.307, 2.755e-7
0.308, 2.758e-7
0.309, 2.755e-7
0.310, 2.754e-7
0.311, 2.750e-7
0.312, 2.744e-7
0.313, 2.740e-7
0.314, 2.746e-7
0.315, 2.749e-7
0.316, 2.752e-7
0.317, 2.754e-7
0.318, 2.755e-7
0.319, 2.759e-7
0.320, 2.760e-7
0.321, 2.761e-7
0.322, 2.764e-7
0.323, 2.764e-7
0.324, 2.772e-7
0.325, 2.774e-7
0.326, 2.779e-7
0.327, 2.785e-7
0.328, 2.782e-7
0.329, 2.786e-7
0.330, 2.788e-7
0.331, 2.788e-7
0.332, 2.793e-7
0.333, 2.797e-7
0.334, 2.799e-7
0.335, 2.798e-7
0.336, 2.798e-7
0.337, 2.804e-7
0.338, 2.800e-7
0.339, 2.806e-7
0.340, 2.806e-7
0.341, 2.809e-7
0.342, 2.814e-7
0.343, 2.812e-7
0.344, 2.813e-7
0.345, 2.814e-7
0.346, 2.819e-7
0.347, 2.824e-7
0.348, 2.822e-7
0.349, 2.824e-7
0.350, 2.826e-7
0.351, 2.830e-7
0.352, 2.834e-7
0.353, 2.834e-7
0.354, 2.835e-7
0.355, 2.839e-7
0.356, 2.838e-7
0.357, 2.842e-7
0.358, 2.844e-7
0.359, 2.851e-7
0.360, 2.850e-7
0.361, 2.852e-7
0.362, 2.856e-7
0.363, 2.854e-7
0.364, 2.860e-7
0.365, 2.860e-7
0.366, 2.862e-7
0.367, 2.867e-7
0.368, 2.863e-7
0.369, 2.871e-7
0.370, 2.871e-7
0.371, 2.874e-7
0.372, 2.880e-7
0.373, 2.877e-7
0.374, 2.879e-7
0.375, 2.884e-7
0.376, 2.884e-7
0.377, 2.894e-7
0.378, 2.891e-7
0.379, 2.893e-7
0.380, 2.898e-7
0.381, 2.896e-7
0.382, 2.903e-7
0.383, 2.904e-7
0.384, 2.909e-7
0.385, 2.912e-7
0.386, 2.910e-7
0.387, 2.915e-7
0.388, 2.919e-7
0.389, 2.920e-7
0.390, 2.924e-7
0.391, 2.924e-7
0.392, 2.932e-7
0.393, 2.930e-7
0.394, 2.935e-7
0.395, 2.937e-7
0.396, 2.939e-7
0.397, 2.944e-7
0.398, 2.947e-7
0.399, 2.952e-7
0.400, 2.943e-7
0.401, 2.946e-7
0.402, 2.948e-7
0.403, 2.951e-7
0.404, 2.962e-7
0.405, 2.965e-7
0.406, 2.968e-7
0.407, 2.975e-7
0.408, 2.976e-7
0.409, 2.988e-7
0.410, 2.995e-7
0.411, 2.996e-7
0.412, 3.001e-7
0.413, 3.000e-7
0.414, 3.006e-7
0.415, 3.006e-7
0.416, 3.008e-7
0.417, 3.016e-7
0.418, 3.017e-7
0.419, 3.021e-7
0.420, 3.024e-7
0.421, 3.024e-7
0.422, 3.034e-7
0.423, 3.039e-7
0.424, 3.041e-7
0.425, 3.043e-7
0.426, 3.046e-7
0.427, 3.056e-7
0.428, 3.056e-7
0.429, 3.065e-7
0.430, 3.064e-7
0.431, 3.066e-7
0.432, 3.076e-7
0.433, 3.077e-7
0.434, 3.085e-7
0.435, 3.093e-7
0.436, 3.098e-7
0.437, 3.096e-7
0.438, 3.103e-7
0.439, 3.109e-7
0.440, 3.111e-7
0.441, 3.117e-7
0.442, 3.123e-7
0.443, 3.125e-7
0.444, 3.134e-7
0.445, 3.134e-7
0.446, 3.141e-7
0.447, 3.149e-7
0.448, 3.152e-7
0.449, 3.160e-7
0.450, 3.160e-7
0.451, 3.165e-7
0.452, 3.176e-7
0.453, 3.176e-7
0.454, 3.181e-7
0.455, 3.192e-7
0.456, 3.191e-7
0.457, 3.203e-7
0.458, 3.207e-7
0.459, 3.212e-7
0.460, 3.219e-7
0.461, 3.227e-7
0.462, 3.238e-7
0.463, 3.239e-7
0.464, 3.245e-7
0.465, 3.251e-7
0.466, 3.254e-7
0.467, 3.256e-7
0.468, 3.270e-7
0.469, 3.276e-7
0.470, 3.283e-7
0.471, 3.290e-7
0.472, 3.299e-7
0.473, 3.307e-7
0.474, 3.318e-7
0.475, 3.323e-7
0.476, 3.329e-7
0.477, 3.343e-7
0.478, 3.349e-7
0.479, 3.353e-7
0.480, 3.360e-7
0.481, 3.368e-7
0.482, 3.379e-7
0.483, 3.385e-7
0.484, 3.396e-7
0.485, 3.404e-7
0.486, 3.414e-7
0.487, 3.426e-7
0.488, 3.431e-7
0.489, 3.439e-7
0.490, 3.447e-7
0.491, 3.455e-7
0.492, 3.469e-7
0.493, 3.473e-7
0.494, 3.486e-7
0.495, 3.495e-7
0.496, 3.504e-7
0.497, 3.519e-7
0.498, 3.523e-7
0.499, 3.538e-7
0.500, 3.549e-7
0.501, 3.557e-7
0.502, 3.571e-7
0.503, 3.580e-7
0.504, 3.590e-7
0.505, 3.601e-7
0.506, 3.612e-7
0.507, 3.627e-7
0.508, 3.633e-7
0.509, 3.646e-7
0.510, 3.654e-7
0.511, 3.664e-7
0.512, 3.683e-7
0.513, 3.695e-7
0.514, 3.702e-7
0.515, 3.715e-7
0.516, 3.731e-7
0.517, 3.742e-7
0.518, 3.757e-7
0.519, 3.776e-7
0.520, 3.787e-7
0.521, 3.806e-7
0.522, 3.821e-7
0.523, 3.838e-7
0.524, 3.857e-7
0.525, 3.873e-7
0.526, 3.892e-7
0.527, 3.911e-7
0.528, 3.927e-7
0.529, 3.948e-7
0.530, 3.965e-7
0.531, 3.987e-7
0.532, 4.008e-7
0.533, 4.027e-7
0.534, 4.048e-7
0.535, 4.070e-7
0.536, 4.088e-7
0.537, 4.118e-7
0.538, 4.145e-7
0.539, 4.165e-7
0.540, 4.189e-7
0.541, 4.211e-7
0.542, 4.240e-7
0.543, 4.263e-7
0.544, 4.285e-7
0.545, 4.313e-7
0.546, 4.340e-7
0.547, 4.375e-7
0.548, 4.404e-7
0.549, 4.432e-7
0.550, 4.465e-7
0.551, 4.496e-7
0.552, 4.527e-7
0.553, 4.556e-7
0.554, 4.587e-7
0.555, 4.622e-7
0.556, 4.657e-7
0.557, 4.696e-7
0.558, 4.733e-7
0.559, 4.770e-7
0.560, 4.807e-7
0.561, 4.849e-7
0.562, 4.888e-7
0.563, 4.931e-7
0.564, 4.977e-7
0.565, 5.017e-7
0.566, 5.063e-7
0.567, 5.109e-7
0.568, 5.154e-7
0.569, 5.201e-7
0.570, 5.251e-7
0.571, 5.300e-7
0.572, 5.357e-7
0.573, 5.405e-7
0.574, 5.460e-7
0.575, 5.515e-7
0.576, 5.570e-7
0.577, 5.633e-7
0.578, 5.685e-7
0.579, 5.751e-7
0.580, 5.814e-7
0.581, 5.875e-7
0.582, 5.943e-7
0.583, 6.006e-7
0.584, 6.074e-7
0.585, 6.148e-7
0.586, 6.219e-7
0.587, 6.296e-7
0.588, 6.372e-7
0.589, 6.454e-7
0.590, 6.529e-7
0.591, 6.611e-7
0.592, 6.698e-7
0.593, 6.789e-7
0.594, 6.879e-7
0.595, 6.966e-7
0.596, 7.061e-7
0.597, 7.157e-7
0.598, 7.250e-7
0.599, 7.355e-7
0.600, 7.457e-7
0.601, 7.570e-7
0.602, 7.683e-7
0.603, 7.791e-7
0.604, 7.902e-7
0.605, 8.018e-7
0.606, 8.137e-7
0.607, 8.261e-7
0.608, 8.384e-7
0.609, 8.512e-7
0.610, 8.640e-7
0.611, 8.770e-7
0.612, 8.914e-7
0.613, 9.050e-7
0.614, 9.200e-7
0.615, 9.347e-7
0.616, 9.495e-7
0.617, 9.651e-7
0.618, 9.808e-7
0.619, 9.969e-7
0.620, 1.014e-6
0.621, 1.030e-6
0.622, 1.048e-6
0.623, 1.065e-6
0.624, 1.084e-6
0.625, 1.102e-6
0.626, 1.121e-6
0.627, 1.141e-6
0.628, 1.160e-6
0.629, 1.180e-6
0.630, 1.201e-6
0.631, 1.223e-6
0.632, 1.245e-6
0.633, 1.267e-6
0.634, 1.290e-6
0.635, 1.314e-6
0.636, 1.338e-6
0.637, 1.362e-6
0.638, 1.387e-6
0.639, 1.413e-6
0.640, 1.439e-6
0.641, 1.467e-6
0.642, 1.494e-6
0.643, 1.522e-6
0.644, 1.553e-6
0.645, 1.582e-6
0.646, 1.612e-6
0.647, 1.643e-6
0.648, 1.674e-6
0.649, 1.707e-6
0.650, 1.738e-6
0.651, 1.773e-6
0.652, 1.808e-6
0.653, 1.842e-6
0.654, 1.878e-6
0.655, 1.915e-6
0.656, 1.951e-6
0.657, 1.989e-6
0.658, 2.028e-6
0.659, 2.068e-6
0.660, 2.109e-6
0.661, 2.150e-6
0.662, 2.193e-6
0.663, 2.237e-6
0.664, 2.281e-6
0.665, 2.327e-6
0.666, 2.374e-6
0.667, 2.422e-6
0.668, 2.470e-6
0.669, 2.519e-6
0.670, 2.570e-6
0.671, 2.621e-6
0.672, 2.674e-6
0.673, 2.727e-6
0.674, 2.781e-6
0.675, 2.837e-6
0.676, 2.894e-6
0.677, 2.952e-6
0.678, 3.011e-6
0.679, 3.073e-6
0.680, 3.136e-6
0.681, 3.199e-6
0.682, 3.263e-6
0.683, 3.329e-6
0.684, 3.396e-6
0.685, 3.464e-6
0.686, 3.532e-6
0.687, 3.602e-6
0.688, 3.674e-6
0.689, 3.748e-6
0.690, 3.823e-6
0.691, 3.901e-6
0.692, 3.981e-6
0.693, 4.060e-6
0.694, 4.141e-6
0.695, 4.224e-6
0.696, 4.307e-6
0.697, 4.394e-6
0.698, 4.481e-6
0.699, 4.570e-6
0.700, 4.662e-6
0.701, 4.756e-6
0.702, 4.851e-6
0.703, 4.946e-6
0.704, 5.044e-6
0.705, 5.142e-6
0.706, 5.243e-6
0.707, 5.347e-6
0.708, 5.453e-6
0.709, 5.561e-6
0.710, 5.671e-6
0.711, 5.781e-6
0.712, 5.894e-6
0.713, 6.009e-6
0.714, 6.126e-6
0.715, 6.246e-6
0.716, 6.369e-6
0.717, 6.494e-6
0.718, 6.619e-6
0.719, 6.744e-6
0.720, 6.875e-6
0.721, 7.007e-6
0.722, 7.142e-6
0.723, 7.279e-6
0.724, 7.418e-6
0.725, 7.559e-6
0.726, 7.702e-6
0.727, 7.849e-6
0.728, 7.998e-6
0.729, 8.149e-6
0.730, 8.300e-6
0.731, 8.456e-6
0.732, 8.615e-6
0.733, 8.776e-6
0.734, 8.940e-6
0.735, 9.105e-6
0.736, 9.273e-6
0.737, 9.446e-6
0.738, 9.620e-6
0.739, 9.795e-6
0.740, 9.973e-6
0.741, 1.015e-5
0.742, 1.034e-5
0.743, 1.053e-5
0.744, 1.072e-5
0.745, 1.091e-5
0.746, 1.111e-5
0.747, 1.131e-5
0.748, 1.151e-5
0.749, 1.171e-5
0.750, 1.192e-5
0.751, 1.213e-5
0.752, 1.234e-5
0.753, 1.256e-5
0.754, 1.278e-5
0.755, 1.300e-5
0.756, 1.323e-5
0.757, 1.346e-5
0.758, 1.369e-5
0.759, 1.392e-5
0.760, 1.416e-5
0.761, 1.440e-5
0.762, 1.464e-5
0.763, 1.489e-5
0.764, 1.514e-5
0.765, 1.539e-5
0.766, 1.565e-5
0.767, 1.591e-5
0.768, 1.617e-5
0.769, 1.644e-5
0.770, 1.671e-5
0.771, 1.698e-5
0.772, 1.726e-5
0.773, 1.754e-5
0.774, 1.782e-5
0.775, 1.810e-5
0.776, 1.839e-5
0.777, 1.868e-5
0.778, 1.898e-5
0.779, 1.928e-5
0.780, 1.958e-5
0.781, 1.988e-5
0.782, 2.019e-5
0.783, 2.051e-5
0.784, 2.082e-5
0.785, 2.114e-5
0.786, 2.146e-5
0.787, 2.179e-5
0.788, 2.211e-5
0.789, 2.244e-5
0.790, 2.278e-5
0.791, 2.312e-5
0.792, 2.346e-5
0.793, 2.381e-5
0.794, 2.415e-5
0.795, 2.451e-5
0.796, 2.486e-5
0.797, 2.522e-5
0.798, 2.558e-5
0.799, 2.595e-5
0.800, 2.621e-5
0.799, 2.594e-5
0.798, 2.550e-5
0.797, 2.504e-5
0.796, 2.460e-5
0.795, 2.416e-5
0.794, 2.373e-5
0.793, 2.330e-5
0.792, 2.289e-5
0.791, 2.248e-5
0.790, 2.208e-5
0.789, 2.168e-5
0.788, 2.129e-5
0.787, 2.091e-5
0.786, 2.054e-5
0.785, 2.017e-5
0.784, 1.981e-5
0.783, 1.945e-5
0.782, 1.910e-5
0.781, 1.875e-5
0.780, 1.841e-5
0.779, 1.807e-5
0.778, 1.774e-5
0.777, 1.742e-5
0.776, 1.710e-5
0.775, 1.679e-5
0.774, 1.648e-5
0.773, 1.617e-5
0.772, 1.587e-5
0.771, 1.558e-5
0.770, 1.529e-5
0.769, 1.500e-5
0.768, 1.472e-5
0.767, 1.444e-5
0.766, 1.417e-5
0.765, 1.390e-5
0.764, 1.364e-5
0.763, 1.338e-5
0.762, 1.313e-5
0.761, 1.288e-5
0.760, 1.263e-5
0.759, 1.239e-5
0.758, 1.215e-5
0.757, 1.192e-5
0.756, 1.168e-5
0.755, 1.146e-5
0.754, 1.124e-5
0.753, 1.102e-5
0.752, 1.080e-5
0.751, 1.059e-5
0.750, 1.038e-5
0.749, 1.017e-5
0.748, 9.972e-6
0.747, 9.776e-6
0.746, 9.582e-6
0.745, 9.391e-6
0.744, 9.201e-6
0.743, 9.017e-6
0.742, 8.835e-6
0.741, 8.656e-6
0.740, 8.480e-6
0.739, 8.308e-6
0.738, 8.142e-6
0.737, 7.976e-6
0.736, 7.811e-6
0.735, 7.651e-6
0.734, 7.493e-6
0.733, 7.339e-6
0.732, 7.188e-6
0.731, 7.038e-6
0.730, 6.891e-6
0.729, 6.747e-6
0.728, 6.608e-6
0.727, 6.470e-6
0.726, 6.334e-6
0.725, 6.199e-6
0.724, 6.068e-6
0.723, 5.939e-6
0.722, 5.813e-6
0.721, 5.689e-6
0.720, 5.568e-6
0.719, 5.447e-6
0.718, 5.330e-6
0.717, 5.214e-6
0.716, 5.101e-6
0.715, 4.992e-6
0.714, 4.883e-6
0.713, 4.776e-6
0.712, 4.671e-6
0.711, 4.567e-6
0.710, 4.467e-6
0.709, 4.368e-6
0.708, 4.272e-6
0.707, 4.177e-6
0.706, 4.084e-6
0.705, 3.994e-6
0.704, 3.903e-6
0.703, 3.814e-6
0.702, 3.728e-6
0.701, 3.643e-6
0.700, 3.561e-6
0.699, 3.482e-6
0.698, 3.403e-6
0.697, 3.325e-6
0.696, 3.248e-6
0.695, 3.173e-6
0.694, 3.099e-6
0.693, 3.026e-6
0.692, 2.954e-6
0.691, 2.885e-6
0.690, 2.817e-6
0.689, 2.751e-6
0.688, 2.687e-6
0.687, 2.622e-6
0.686, 2.560e-6
0.685, 2.499e-6
0.684, 2.439e-6
0.683, 2.380e-6
0.682, 2.322e-6
0.681, 2.264e-6
0.680, 2.209e-6
0.679, 2.154e-6
0.678, 2.102e-6
0.677, 2.049e-6
0.676, 1.998e-6
0.675, 1.949e-6
0.674, 1.902e-6
0.673, 1.854e-6
0.672, 1.807e-6
0.671, 1.761e-6
0.670, 1.717e-6
0.669, 1.672e-6
0.668, 1.629e-6
0.667, 1.588e-6
0.666, 1.545e-6
0.665, 1.504e-6
0.664, 1.464e-6
0.663, 1.425e-6
0.662, 1.387e-6
0.661, 1.350e-6
0.660, 1.315e-6
0.659, 1.279e-6
0.658, 1.244e-6
0.657, 1.210e-6
0.656, 1.177e-6
0.655, 1.145e-6
0.654, 1.113e-6
0.653, 1.082e-6
0.652, 1.051e-6
0.651, 1.022e-6
0.650, 9.929e-7
0.649, 9.642e-7
0.648, 9.367e-7
0.647, 9.089e-7
0.646, 8.825e-7
0.645, 8.567e-7
0.644, 8.309e-7
0.643, 8.064e-7
0.642, 7.816e-7
0.641, 7.575e-7
0.640, 7.330e-7
0.639, 7.098e-7
0.638, 6.878e-7
0.637, 6.661e-7
0.636, 6.446e-7
0.635, 6.241e-7
0.634, 6.037e-7
0.633, 5.842e-7
0.632, 5.647e-7
0.631, 5.456e-7
0.630, 5.277e-7
0.629, 5.091e-7
0.628, 4.916e-7
0.627, 4.740e-7
0.626, 4.570e-7
0.625, 4.411e-7
0.624, 4.249e-7
0.623, 4.093e-7
0.622, 3.938e-7
0.621, 3.786e-7
0.620, 3.657e-7
0.619, 3.525e-7
0.618, 3.390e-7
0.617, 3.251e-7
0.616, 3.114e-7
0.615, 2.984e-7
0.614, 2.856e-7
0.613, 2.734e-7
0.612, 2.612e-7
0.611, 2.497e-7
0.610, 2.380e-7
0.609, 2.269e-7
0.608, 2.157e-7
0.607, 2.051e-7
0.606, 1.948e-7
0.605, 1.846e-7
0.604, 1.747e-7
0.603, 1.655e-7
0.602, 1.554e-7
0.601, 1.461e-7
0.600, 1.374e-7
0.599, 1.283e-7
0.598, 1.202e-7
0.597, 1.117e-7
0.596, 1.031e-7
0.595, 9.519e-8
0.594, 8.731e-8
0.593, 7.989e-8
0.592, 7.256e-8
0.591, 6.497e-8
0.590, 5.815e-8
0.589, 5.035e-8
0.588, 4.423e-8
0.587, 3.757e-8
0.586, 3.088e-8
0.585, 2.537e-8
0.584, 1.900e-8
0.583, 1.309e-8
0.582, 7.226e-9
0.581, 1.309e-9
0.580, -3.760e-9
0.579, -9.322e-9
0.578, -1.452e-8
0.577, -1.974e-8
0.576, -2.494e-8
0.575, -2.994e-8
0.574, -3.478e-8
0.573, -4.013e-8
0.572, -4.545e-8
0.571, -4.941e-8
0.570, -5.400e-8
0.569, -5.866e-8
0.568, -6.309e-8
0.567, -6.756e-8
0.566, -7.170e-8
0.565, -7.511e-8
0.564, -7.932e-8
0.563, -8.313e-8
0.562, -8.670e-8
0.561, -9.010e-8
0.560, -9.397e-8
0.559, -9.714e-8
0.558, -9.978e-8
0.557, -1.028e-7
0.556, -1.062e-7
0.555, -1.089e-7
0.554, -1.123e-7
0.553, -1.148e-7
0.552, -1.180e-7
0.551, -1.209e-7
0.550, -1.231e-7
0.549, -1.258e-7
0.548, -1.284e-7
0.547, -1.308e-7
0.546, -1.335e-7
0.545, -1.354e-7
0.544, -1.383e-7
0.543, -1.408e-7
0.542, -1.428e-7
0.541, -1.451e-7
0.540, -1.468e-7
0.539, -1.494e-7
0.538, -1.514e-7
0.537, -1.536e-7
0.536, -1.555e-7
0.535, -1.572e-7
0.534, -1.592e-7
0.533, -1.609e-7
0.532, -1.630e-7
0.531, -1.650e-7
0.530, -1.671e-7
0.529, -1.683e-7
0.528, -1.700e-7
0.527, -1.716e-7
0.526, -1.732e-7
0.525, -1.744e-7
0.524, -1.762e-7
0.523, -1.774e-7
0.522, -1.792e-7
0.521, -1.807e-7
0.520, -1.816e-7
0.519, -1.836e-7
0.518, -1.846e-7
0.517, -1.863e-7
0.516, -1.876e-7
0.515, -1.884e-7
0.514, -1.902e-7
0.513, -1.912e-7
0.512, -1.931e-7
0.511, -1.944e-7
0.510, -1.950e-7
0.509, -1.963e-7
0.508, -1.972e-7
0.507, -1.982e-7
0.506, -1.998e-7
0.505, -2.001e-7
0.504, -2.017e-7
0.503, -2.025e-7
0.502, -2.035e-7
0.501, -2.046e-7
0.500, -2.054e-7
0.499, -2.068e-7
0.498, -2.077e-7
0.497, -2.089e-7
0.496, -2.097e-7
0.495, -2.105e-7
0.494, -2.114e-7
0.493, -2.121e-7
0.492, -2.133e-7
0.491, -2.140e-7
0.490, -2.145e-7
0.489, -2.156e-7
0.488, -2.163e-7
0.487, -2.174e-7
0.486, -2.184e-7
0.485, -2.187e-7
0.484, -2.197e-7
0.483, -2.203e-7
0.482, -2.214e-7
0.481, -2.220e-7
0.480, -2.225e-7
0.479, -2.236e-7
0.478, -2.241e-7
0.477, -2.249e-7
0.476, -2.257e-7
0.475, -2.258e-7
0.474, -2.272e-7
0.473, -2.277e-7
0.472, -2.284e-7
0.471, -2.291e-7
0.470, -2.295e-7
0.469, -2.307e-7
0.468, -2.312e-7
0.467, -2.319e-7
0.466, -2.325e-7
0.465, -2.326e-7
0.464, -2.336e-7
0.463, -2.342e-7
0.462, -2.348e-7
0.461, -2.358e-7
0.460, -2.364e-7
0.459, -2.367e-7
0.458, -2.374e-7
0.457, -2.380e-7
0.456, -2.387e-7
0.455, -2.392e-7
0.454, -2.397e-7
0.453, -2.403e-7
0.452, -2.409e-7
0.451, -2.415e-7
0.450, -2.418e-7
0.449, -2.426e-7
0.448, -2.429e-7
0.447, -2.438e-7
0.446, -2.441e-7
0.445, -2.445e-7
0.444, -2.451e-7
0.443, -2.456e-7
0.442, -2.461e-7
0.441, -2.467e-7
0.440, -2.469e-7
0.439, -2.480e-7
0.438, -2.480e-7
0.437, -2.486e-7
0.436, -2.494e-7
0.435, -2.500e-7
0.434, -2.505e-7
0.433, -2.508e-7
0.432, -2.512e-7
0.431, -2.519e-7
0.430, -2.523e-7
0.429, -2.533e-7
0.428, -2.534e-7
0.427, -2.540e-7
0.426, -2.544e-7
0.425, -2.546e-7
0.424, -2.556e-7
0.423, -2.557e-7
0.422, -2.567e-7
0.421, -2.571e-7
0.420, -2.572e-7
0.419, -2.577e-7
0.418, -2.581e-7
0.417, -2.591e-7
0.416, -2.595e-7
0.415, -2.598e-7
0.414, -2.602e-7
0.413, -2.607e-7
0.412, -2.612e-7
0.411, -2.617e-7
0.410, -2.625e-7
0.409, -2.636e-7
0.408, -2.635e-7
0.407, -2.642e-7
0.406, -2.644e-7
0.405, -2.645e-7
0.404, -2.653e-7
0.403, -2.655e-7
0.402, -2.660e-7
0.401, -2.665e-7
0.400, -2.667e-7
0.399, -2.674e-7
0.398, -2.676e-7
0.397, -2.681e-7
0.396, -2.690e-7
0.395, -2.689e-7
0.394, -2.698e-7
0.393, -2.699e-7
0.392, -2.705e-7
0.391, -2.712e-7
0.390, -2.709e-7
0.389, -2.716e-7
0.388, -2.718e-7
0.387, -2.724e-7
0.386, -2.730e-7
0.385, -2.728e-7
0.384, -2.743e-7
0.383, -2.743e-7
0.382, -2.745e-7
0.381, -2.753e-7
0.380, -2.752e-7
0.379, -2.758e-7
0.378, -2.762e-7
0.377, -2.767e-7
0.376, -2.773e-7
0.375, -2.774e-7
0.374, -2.778e-7
0.373, -2.781e-7
0.372, -2.790e-7
0.371, -2.794e-7
0.370, -2.796e-7
0.369, -2.802e-7
0.368, -2.802e-7
0.367, -2.811e-7
0.366, -2.814e-7
0.365, -2.817e-7
0.364, -2.825e-7
0.363, -2.823e-7
0.362, -2.831e-7
0.361, -2.835e-7
0.360, -2.837e-7
0.359, -2.844e-7
0.358, -2.851e-7
0.357, -2.854e-7
0.356, -2.863e-7
0.355, -2.860e-7
0.354, -2.866e-7
0.353, -2.868e-7
0.352, -2.875e-7
0.351, -2.881e-7
0.350, -2.890e-7
0.349, -2.896e-7
0.348, -2.898e-7
0.347, -2.905e-7
0.346, -2.912e-7
0.345, -2.914e-7
0.344, -2.913e-7
0.343, -2.915e-7
0.342, -2.917e-7
0.341, -2.924e-7
0.340, -2.924e-7
0.339, -2.931e-7
0.338, -2.935e-7
0.337, -2.938e-7
0.336, -2.945e-7
0.335, -2.944e-7
0.334, -2.947e-7
0.333, -2.958e-7
0.332, -2.963e-7
0.331, -2.964e-7
0.330, -2.966e-7
0.329, -2.970e-7
0.328, -2.974e-7
0.327, -2.981e-7
0.326, -2.984e-7
0.325, -2.986e-7
0.324, -2.993e-7
0.323, -2.997e-7
0.322, -3.000e-7
0.321, -3.004e-7
0.320, -3.009e-7
0.319, -3.017e-7
0.318, -3.013e-7
0.317, -3.021e-7
0.316, -3.024e-7
0.315, -3.026e-7
0.314, -3.037e-7
0.313, -3.038e-7
0.312, -3.041e-7
0.311, -3.046e-7
0.310, -3.049e-7
0.309, -3.055e-7
0.308, -3.058e-7
0.307, -3.072e-7
0.306, -3.076e-7
0.305, -3.073e-7
0.304, -3.079e-7
0.303, -3.084e-7
0.302, -3.085e-7
0.301, -3.094e-7
0.300, -3.096e-7
0.299, -3.101e-7
0.298, -3.105e-7
0.297, -3.109e-7
0.296, -3.118e-7
0.295, -3.120e-7
0.294, -3.122e-7
0.293, -3.126e-7
0.292, -3.132e-7
0.291, -3.137e-7
0.290, -3.139e-7
0.289, -3.146e-7
0.288, -3.153e-7
0.287, -3.167e-7
0.286, -3.169e-7
0.285, -3.174e-7
0.284, -3.180e-7
0.283, -3.184e-7
0.282, -3.185e-7
0.281, -3.192e-7
0.280, -3.189e-7
0.279, -3.195e-7
0.278, -3.195e-7
0.277, -3.204e-7
0.276, -3.207e-7
0.275, -3.208e-7
0.274, -3.214e-7
0.273, -3.217e-7
0.272, -3.226e-7
0.271, -3.228e-7
0.270, -3.231e-7
0.269, -3.238e-7
0.268, -3.243e-7
0.267, -3.247e-7
0.266, -3.254e-7
0.265, -3.254e-7
0.264, -3.258e-7
0.263, -3.266e-7
0.262, -3.269e-7
0.261, -3.277e-7
0.260, -3.278e-7
0.259, -3.283e-7
0.258, -3.289e-7
0.257, -3.294e-7
0.256, -3.304e-7
0.255, -3.307e-7
0.254, -3.312e-7
0.253, -3.315e-7
0.252, -3.321e-7
0.251, -3.325e-7
0.250, -3.330e-7
0.249, -3.336e-7
0.248, -3.340e-7
0.247, -3.347e-7
0.246, -3.352e-7
0.245, -3.353e-7
0.244, -3.360e-7
0.243, -3.369e-7
0.242, -3.374e-7
0.241, -3.375e-7
0.240, -3.380e-7
0.239, -3.390e-7
0.238, -3.389e-7
0.237, -3.395e-7
0.236, -3.405e-7
0.235, -3.408e-7
0.234, -3.414e-7
0.233, -3.418e-7
0.232, -3.425e-7
0.231, -3.433e-7
0.230, -3.438e-7
0.229, -3.450e-7
0.228, -3.452e-7
0.227, -3.453e-7
0.226, -3.462e-7
0.225, -3.463e-7
0.224, -3.472e-7
0.223, -3.475e-7
0.222, -3.480e-7
0.221, -3.488e-7
0.220, -3.492e-7
0.219, -3.497e-7
0.218, -3.501e-7
0.217, -3.508e-7
0.216, -3.512e-7
0.215, -3.522e-7
0.214, -3.525e-7
0.213, -3.530e-7
0.212, -3.536e-7
0.211, -3.542e-7
0.210, -3.548e-7
0.209, -3.553e-7
0.208, -3.555e-7
0.207, -3.566e-7
0.206, -3.572e-7
0.205, -3.579e-7
0.204, -3.590e-7
0.203, -3.590e-7
0.202, -3.596e-7
0.201, -3.605e-7
0.200, -3.613e-7
0.199, -3.625e-7
0.198, -3.631e-7
0.197, -3.637e-7
0.196, -3.641e-7
0.195, -3.641e-7
0.194, -3.649e-7
0.193, -3.650e-7
0.192, -3.660e-7
0.191, -3.666e-7
0.190, -3.669e-7
0.189, -3.678e-7
0.188, -3.684e-7
0.187, -3.687e-7
0.186, -3.699e-7
0.185, -3.703e-7
0.184, -3.711e-7
0.183, -3.716e-7
0.182, -3.723e-7
0.181, -3.729e-7
0.180, -3.737e-7
0.179, -3.747e-7
0.178, -3.753e-7
0.177, -3.754e-7
0.176, -3.764e-7
0.175, -3.770e-7
0.174, -3.777e-7
0.173, -3.783e-7
0.172, -3.790e-7
0.171, -3.798e-7
0.170, -3.801e-7
0.169, -3.812e-7
0.168, -3.817e-7
0.167, -3.824e-7
0.166, -3.832e-7
0.165, -3.838e-7
0.164, -3.848e-7
0.163, -3.857e-7
0.162, -3.858e-7
0.161, -3.870e-7
0.160, -3.874e-7
0.159, -3.885e-7
0.158, -3.890e-7
0.157, -3.896e-7
0.156, -3.909e-7
0.155, -3.913e-7
0.154, -3.921e-7
0.153, -3.931e-7
0.152, -3.933e-7
0.151, -3.946e-7
0.150, -3.949e-7
0.149, -3.958e-7
0.148, -3.967e-7
0.147, -3.973e-7
0.146, -3.985e-7
0.145, -3.989e-7
0.144, -3.998e-7
0.143, -4.006e-7
0.142, -4.011e-7
0.141, -4.022e-7
0.140, -4.031e-7
0.139, -4.035e-7
0.138, -4.043e-7
0.137, -4.050e-7
0.136, -4.060e-7
0.135, -4.067e-7
0.134, -4.077e-7
0.133, -4.085e-7
0.132, -4.093e-7
0.131, -4.102e-7
0.130, -4.111e-7
0.129, -4.118e-7
0.128, -4.131e-7
0.127, -4.137e-7
0.126, -4.145e-7
0.125, -4.155e-7
0.124, -4.164e-7
0.123, -4.168e-7
0.122, -4.179e-7
0.121, -4.188e-7
0.120, -4.193e-7
0.119, -4.205e-7
0.118, -4.210e-7
0.117, -4.224e-7
0.116, -4.232e-7
0.115, -4.238e-7
0.114, -4.247e-7
0.113, -4.258e-7
0.112, -4.265e-7
0.111, -4.275e-7
0.110, -4.279e-7
0.109, -4.293e-7
0.108, -4.303e-7
0.107, -4.305e-7
0.106, -4.319e-7
0.105, -4.327e-7
0.104, -4.337e-7
0.103, -4.348e-7
0.102, -4.364e-7
0.101, -4.372e-7
0.100, -4.376e-7
0.099, -4.387e-7
0.098, -4.394e-7
0.097, -4.403e-7
0.096, -4.417e-7
0.095, -4.424e-7
0.094, -4.431e-7
0.093, -4.441e-7
0.092, -4.450e-7
0.091, -4.460e-7
0.090, -4.471e-7
0.089, -4.484e-7
0.088, -4.494e-7
0.087, -4.502e-7
0.086, -4.512e-7
0.085, -4.522e-7
0.084, -4.537e-7
0.083, -4.546e-7
0.082, -4.554e-7
0.081, -4.565e-7
0.080, -4.578e-7
0.079, -4.589e-7
0.078, -4.598e-7
0.077, -4.612e-7
0.076, -4.625e-7
0.075, -4.632e-7
0.074, -4.645e-7
0.073, -4.654e-7
0.072, -4.662e-7
0.071, -4.676e-7
0.070, -4.684e-7
0.069, -4.696e-7
0.068, -4.708e-7
0.067, -4.713e-7
0.066, -4.729e-7
0.065, -4.737e-7
0.064, -4.752e-7
0.063, -4.768e-7
0.062, -4.772e-7
0.061, -4.788e-7
0.060, -4.798e-7
0.059, -4.811e-7
0.058, -4.821e-7
0.057, -4.828e-7
0.056, -4.847e-7
0.055, -4.860e-7
0.054, -4.868e-7
0.053, -4.879e-7
0.052, -4.891e-7
0.051, -4.909e-7
0.050, -4.920e-7
0.049, -4.931e-7
0.048, -4.941e-7
0.047, -4.952e-7
0.046, -4.965e-7
0.045, -4.974e-7
0.044, -4.992e-7
0.043, -5.000e-7
0.042, -5.013e-7
0.041, -5.025e-7
0.040, -5.036e-7
0.039, -5.051e-7
0.038, -5.065e-7
0.037, -5.074e-7
0.036, -5.092e-7
0.035, -5.102e-7
0.034, -5.116e-7
0.033, -5.131e-7
0.032, -5.140e-7
0.031, -5.157e-7
0.030, -5.167e-7
0.029, -5.180e-7
0.028, -5.196e-7
0.027, -5.206e-7
0.026, -5.223e-7
0.025, -5.235e-7
0.024, -5.251e-7
0.023, -5.262e-7
0.022, -5.266e-7
0.021, -5.283e-7
0.020, -5.298e-7
0.019, -5.314e-7
0.018, -5.330e-7
0.017, -5.343e-7
0.016, -5.359e-7
0.015, -5.371e-7
0.014, -5.387e-7
0.013, -5.405e-7
0.012, -5.415e-7
0.011, -5.429e-7
0.010, -5.446e-7
0.009, -5.458e-7
0.008, -5.472e-7
0.007, -5.489e-7
0.006, -5.500e-7
0.005, -5.516e-7
0.004, -5.534e-7
0.003, -5.545e-7
0.002, -5.562e-7
0.001, -5.574e-7
0.000, -5.122e-7
0.001, -3.776e-7
0.002, -3.012e-7
0.003, -2.541e-7
0.004, -2.204e-7
0.005, -1.938e-7
0.006, -1.713e-7
0.007, -1.520e-7
0.008, -1.345e-7
0.009, -1.193e-7
0.010, -1.053e-7
0.011, -9.257e-8
0.012, -8.053e-8
0.013, -6.955e-8
0.014, -5.875e-8
0.015, -4.895e-8
0.016, -3.954e-8
0.017, -3.024e-8
0.018, -2.138e-8
0.019, -1.407e-8
0.020, -6.468e-9
0.021, 1.280e-10
0.022, 6.743e-9
0.023, 1.344e-8
0.024, 1.893e-8
0.025, 2.516e-8
0.026, 3.097e-8
0.027, 3.627e-8
0.028, 4.154e-8
0.029, 4.613e-8
0.030, 5.122e-8
0.031, 5.549e-8
0.032, 6.005e-8
0.033, 6.475e-8
0.034, 6.829e-8
0.035, 7.280e-8
0.036, 7.670e-8
0.037, 8.005e-8
0.038, 8.417e-8
0.039, 8.781e-8
0.040, 9.114e-8
0.041, 9.408e-8
0.042, 9.724e-8
0.043, 1.007e-7
0.044, 1.039e-7
0.045, 1.068e-7
0.046, 1.095e-7
0.047, 1.124e-7
0.048, 1.153e-7
0.049, 1.177e-7
0.050, 1.204e-7
0.051, 1.231e-7
0.052, 1.254e-7
0.053, 1.280e-7
0.054, 1.301e-7
0.055, 1.328e-7
0.056, 1.341e-7
0.057, 1.369e-7
0.058, 1.389e-7
0.059, 1.410e-7
0.060, 1.432e-7
0.061, 1.446e-7
0.062, 1.466e-7
0.063, 1.486e-7
0.064, 1.503e-7
0.065, 1.521e-7
0.066, 1.539e-7
0.067, 1.552e-7
0.068, 1.575e-7
0.069, 1.586e-7
0.070, 1.604e-7
0.071, 1.618e-7
0.072, 1.629e-7
0.073, 1.642e-7
0.074, 1.658e-7
0.075, 1.674e-7
0.076, 1.691e-7
0.077, 1.710e-7
0.078, 1.724e-7
0.079, 1.735e-7
0.080, 1.747e-7
0.081, 1.759e-7
0.082, 1.767e-7
0.083, 1.784e-7
0.084, 1.790e-7
0.085, 1.805e-7
0.086, 1.815e-7
0.087, 1.826e-7
0.088, 1.836e-7
0.089, 1.848e-7
0.090, 1.861e-7
0.091, 1.869e-7
0.092, 1.878e-7
0.093, 1.891e-7
0.094, 1.898e-7
0.095, 1.909e-7
0.096, 1.915e-7
0.097, 1.925e-7
0.098, 1.938e-7
0.099, 1.943e-7
0.100, 1.954e-7
0.101, 1.962e-7
0.102, 1.973e-7
0.103, 1.988e-7
0.104, 1.987e-7
0.105, 1.998e-7
0.106, 2.001e-7
0.107, 2.006e-7
0.108, 2.024e-7
0.109, 2.023e-7
0.110, 2.033e-7
0.111, 2.040e-7
0.112, 2.041e-7
0.113, 2.054e-7
0.114, 2.057e-7
0.115, 2.068e-7
0.116, 2.072e-7
0.117, 2.073e-7
0.118, 2.087e-7
0.119, 2.091e-7
0.120, 2.096e-7
0.121, 2.102e-7
0.122, 2.107e-7
0.123, 2.117e-7
0.124, 2.119e-7
0.125, 2.123e-7
0.126, 2.129e-7
0.127, 2.136e-7
0.128, 2.145e-7
0.129, 2.151e-7
0.130, 2.155e-7
0.131, 2.156e-7
0.132, 2.161e-7
0.133, 2.171e-7
0.134, 2.172e-7
0.135, 2.177e-7
0.136, 2.177e-7
0.137, 2.185e-7
0.138, 2.192e-7
0.139, 2.192e-7
0.140, 2.201e-7
0.141, 2.203e-7
0.142, 2.206e-7
0.143, 2.215e-7
0.144, 2.215e-7
0.145, 2.221e-7
0.146, 2.224e-7
0.147, 2.227e-7
0.148, 2.234e-7
0.149, 2.230e-7
0.150, 2.232e-7
0.151, 2.239e-7
0.152, 2.242e-7
0.153, 2.253e-7
0.154, 2.255e-7
0.155, 2.258e-7
0.156, 2.261e-7
0.157, 2.262e-7
0.158, 2.272e-7
0.159, 2.271e-7
0.160, 2.274e-7
0.161, 2.278e-7
0.162, 2.278e-7
0.163, 2.285e-7
0.164, 2.287e-7
0.165, 2.290e-7
0.166, 2.293e-7
0.167, 2.295e-7
0.168, 2.300e-7
0.169, 2.303e-7
0.170, 2.304e-7
0.171, 2.305e-7
0.172, 2.310e-7
0.173, 2.315e-7
0.174, 2.314e-7
0.175, 2.317e-7
0.176, 2.319e-7
0.177, 2.323e-7
0.178, 2.325e-7
0.179, 2.331e-7
0.180, 2.335e-7
0.181, 2.330e-7
0.182, 2.333e-7
0.183, 2.341e-7
0.184, 2.339e-7
0.185, 2.344e-7
0.186, 2.347e-7
0.187, 2.346e-7
0.188, 2.351e-7
0.189, 2.348e-7
0.190, 2.355e-7
0.191, 2.356e-7
0.192, 2.356e-7
0.193, 2.364e-7
0.194, 2.362e-7
0.195, 2.365e-7
0.196, 2.368e-7
0.197, 2.365e-7
0.198, 2.371e-7
0.199, 2.375e-7
0.200, 2.373e-7
0.201, 2.396e-7
0.202, 2.408e-7
0.203, 2.405e-7
0.204, 2.398e-7
0.205, 2.402e-7
0.206, 2.395e-7
0.207, 2.395e-7
0.208, 2.401e-7
0.209, 2.400e-7
0.210, 2.399e-7
0.211, 2.401e-7
0.212, 2.404e-7
0.213, 2.406e-7
0.214, 2.406e-7
0.215, 2.409e-7
0.216, 2.405e-7
0.217, 2.409e-7
0.218, 2.414e-7
0.219, 2.414e-7
0.220, 2.418e-7
0.221, 2.415e-7
0.222, 2.417e-7
0.223, 2.424e-7
0.224, 2.419e-7
0.225, 2.427e-7
0.226, 2.426e-7
0.227, 2.424e-7
0.228, 2.429e-7
0.229, 2.427e-7
0.230, 2.432e-7
0.231, 2.435e-7
0.232, 2.431e-7
0.233, 2.439e-7
0.234, 2.435e-7
0.235, 2.436e-7
0.236, 2.441e-7
0.237, 2.438e-7
0.238, 2.446e-7
0.239, 2.448e-7
0.240, 2.448e-7
0.241, 2.449e-7
0.242, 2.450e-7
0.243, 2.456e-7
0.244, 2.457e-7
0.245, 2.458e-7
0.246, 2.459e-7
0.247, 2.458e-7
0.248, 2.462e-7
0.249, 2.465e-7
0.250, 2.466e-7
0.251, 2.468e-7
0.252, 2.469e-7
0.253, 2.471e-7
0.254, 2.472e-7
0.255, 2.475e-7
0.256, 2.478e-7
0.257, 2.478e-7
0.258, 2.482e-7
0.259, 2.480e-7
0.260, 2.486e-7
0.261, 2.483e-7
0.262, 2.485e-7
0.263, 2.492e-7
0.264, 2.487e-7
0.265, 2.495e-7
0.266, 2.492e-7
0.267, 2.494e-7
0.268, 2.499e-7
0.269, 2.500e-7
0.270, 2.501e-7
0.271, 2.505e-7
0.272, 2.498e-7
0.273, 2.503e-7
0.274, 2.503e-7
0.275, 2.508e-7
0.276, 2.511e-7
0.277, 2.510e-7
0.278, 2.514e-7
0.279, 2.516e-7
0.280, 2.518e-7
0.281, 2.523e-7
0.282, 2.523e-7
0.283, 2.526e-7
0.284, 2.527e-7
0.285, 2.525e-7
0.286, 2.529e-7
0.287, 2.530e-7
0.288, 2.533e-7
0.289, 2.534e-7
0.290, 2.536e-7
0.291, 2.537e-7
0.292, 2.538e-7
0.293, 2.542e-7
0.294, 2.542e-7
0.295, 2.547e-7
0.296, 2.546e-7
0.297, 2.548e-7
0.298, 2.554e-7
0.299, 2.553e-7
0.300, 2.554e-7
0.301, 2.557e-7
0.302, 2.557e-7
0.303, 2.561e-7
0.304, 2.559e-7
0.305, 2.565e-7
0.306, 2.564e-7
0.307, 2.571e-7
0.308, 2.577e-7
0.309, 2.574e-7
0.310, 2.574e-7
0.311, 2.575e-7
0.312, 2.577e-7
0.313, 2.582e-7
0.314, 2.580e-7
0.315, 2.584e-7
0.316, 2.585e-7
0.317, 2.588e-7
0.318, 2.589e-7
0.319, 2.590e-7
0.320, 2.595e-7
0.321, 2.596e-7
0.322, 2.594e-7
0.323, 2.601e-7
0.324, 2.601e-7
0.325, 2.600e-7
0.326, 2.604e-7
0.327, 2.614e-7
0.328, 2.612e-7
0.329, 2.615e-7
0.330, 2.616e-7
0.331, 2.617e-7
0.332, 2.622e-7
0.333, 2.625e-7
0.334, 2.625e-7
0.335, 2.626e-7
0.336, 2.626e-7
0.337, 2.625e-7
0.338, 2.630e-7
0.339, 2.633e-7
0.340, 2.639e-7
0.341, 2.638e-7
0.342, 2.636e-7
0.343, 2.648e-7
0.344, 2.646e-7
0.345, 2.651e-7
0.346, 2.653e-7
0.347, 2.651e-7
0.348, 2.657e-7
0.349, 2.655e-7
0.350, 2.660e-7
0.351, 2.659e-7
0.352, 2.658e-7
0.353, 2.667e-7
0.354, 2.663e-7
0.355, 2.670e-7
0.356, 2.672e-7
0.357, 2.670e-7
0.358, 2.678e-7
0.359, 2.682e-7
0.360, 2.679e-7
0.361, 2.682e-7
0.362, 2.684e-7
0.363, 2.690e-7
0.364, 2.692e-7
0.365, 2.693e-7
0.366, 2.694e-7
0.367, 2.699e-7
0.368, 2.701e-7
0.369, 2.702e-7
0.370, 2.702e-7
0.371, 2.706e-7
0.372, 2.702e-7
0.373, 2.711e-7
0.374, 2.711e-7
0.375, 2.711e-7
0.376, 2.714e-7
0.377, 2.722e-7
0.378, 2.724e-7
0.379, 2.724e-7
0.380, 2.732e-7
0.381, 2.734e-7
0.382, 2.736e-7
0.383, 2.740e-7
0.384, 2.744e-7
0.385, 2.749e-7
0.386, 2.747e-7
0.387, 2.751e-7
0.388, 2.758e-7
0.389, 2.757e-7
0.390, 2.760e-7
0.391, 2.762e-7
0.392, 2.762e-7
0.393, 2.770e-7
0.394, 2.767e-7
0.395, 2.776e-7
0.396, 2.777e-7
0.397, 2.780e-7
0.398, 2.784e-7
0.399, 2.788e-7
0.400, 2.788e-7
0.401, 2.791e-7
0.402, 2.795e-7
0.403, 2.800e-7
0.404, 2.801e-7
0.405, 2.805e-7
0.406, 2.811e-7
0.407, 2.811e-7
0.408, 2.817e-7
0.409, 2.825e-7
0.410, 2.837e-7
0.411, 2.834e-7
0.412, 2.833e-7
0.413, 2.836e-7
0.414, 2.840e-7
0.415, 2.844e-7
0.416, 2.847e-7
0.417, 2.849e-7
0.418, 2.854e-7
0.419, 2.856e-7
0.420, 2.862e-7
0.421, 2.861e-7
0.422, 2.867e-7
0.423, 2.874e-7
0.424, 2.873e-7
0.425, 2.880e-7
0.426, 2.880e-7
0.427, 2.884e-7
0.428, 2.892e-7
0.429, 2.890e-7
0.430, 2.897e-7
0.431, 2.897e-7
0.432, 2.903e-7
0.433, 2.909e-7
0.434, 2.912e-7
0.435, 2.921e-7
0.436, 2.923e-7
0.437, 2.921e-7
0.438, 2.931e-7
0.439, 2.932e-7
0.440, 2.935e-7
0.441, 2.939e-7
0.442, 2.944e-7
0.443, 2.951e-7
0.444, 2.953e-7
0.445, 2.957e-7
0.446, 2.964e-7
0.447, 2.969e-7
0.448, 2.974e-7
0.449, 2.978e-7
0.450, 2.982e-7
0.451, 2.985e-7
0.452, 2.993e-7
0.453, 2.997e-7
0.454, 3.000e-7
0.455, 3.009e-7
0.456, 3.012e-7
0.457, 3.017e-7
0.458, 3.024e-7
0.459, 3.025e-7
0.460, 3.035e-7
0.461, 3.044e-7
0.462, 3.047e-7
0.463, 3.055e-7
0.464, 3.056e-7
0.465, 3.066e-7
0.466, 3.067e-7
0.467, 3.075e-7
0.468, 3.085e-7
0.469, 3.088e-7
0.470, 3.095e-7
0.471, 3.099e-7
0.472, 3.105e-7
0.473, 3.113e-7
0.474, 3.120e-7
0.475, 3.126e-7
0.476, 3.134e-7
0.477, 3.138e-7
0.478, 3.146e-7
0.479, 3.151e-7
0.480, 3.159e-7
0.481, 3.166e-7
0.482, 3.171e-7
0.483, 3.180e-7
0.484, 3.187e-7
0.485, 3.196e-7
0.486, 3.205e-7
0.487, 3.210e-7
0.488, 3.219e-7
0.489, 3.227e-7
0.490, 3.235e-7
0.491, 3.239e-7
0.492, 3.248e-7
0.493, 3.259e-7
0.494, 3.268e-7
0.495, 3.279e-7
0.496, 3.282e-7
0.497, 3.295e-7
0.498, 3.306e-7
0.499, 3.315e-7
0.500, 3.326e-7
0.501, 3.330e-7
0.502, 3.345e-7
0.503, 3.357e-7
0.504, 3.356e-7
0.505, 3.376e-7
0.506, 3.384e-7
0.507, 3.397e-7
0.508, 3.407e-7
0.509, 3.416e-7
0.510, 3.431e-7
0.511, 3.439e-7
0.512, 3.455e-7
0.513, 3.471e-7
0.514, 3.477e-7
0.515, 3.488e-7
0.516, 3.503e-7
0.517, 3.513e-7
0.518, 3.528e-7
0.519, 3.539e-7
0.520, 3.554e-7
0.521, 3.567e-7
0.522, 3.579e-7
0.523, 3.595e-7
0.524, 3.609e-7
0.525, 3.622e-7
0.526, 3.634e-7
0.527, 3.647e-7
0.528, 3.661e-7
0.529, 3.671e-7
0.530, 3.688e-7
0.531, 3.704e-7
0.532, 3.719e-7
0.533, 3.737e-7
0.534, 3.752e-7
0.535, 3.774e-7
0.536, 3.792e-7
0.537, 3.815e-7
0.538, 3.839e-7
0.539, 3.855e-7
0.540, 3.879e-7
0.541, 3.897e-7
0.542, 3.918e-7
0.543, 3.943e-7
0.544, 3.964e-7
0.545, 3.987e-7
0.546, 4.013e-7
0.547, 4.035e-7
0.548, 4.062e-7
0.549, 4.086e-7
0.550, 4.115e-7
0.551, 4.144e-7
0.552, 4.172e-7
0.553, 4.202e-7
0.554, 4.231e-7
0.555, 4.261e-7
0.556, 4.292e-7
0.557, 4.321e-7
0.558, 4.358e-7
0.559, 4.389e-7
0.560, 4.423e-7
0.561, 4.461e-7
0.562, 4.494e-7
0.563, 4.536e-7
0.564, 4.573e-7
0.565, 4.609e-7
0.566, 4.649e-7
0.567, 4.688e-7
0.568, 4.731e-7
0.569, 4.775e-7
0.570, 4.817e-7
0.571, 4.860e-7
0.572, 4.906e-7
0.573, 4.950e-7
0.574, 5.002e-7
0.575, 5.054e-7
0.576, 5.107e-7
0.577, 5.160e-7
0.578, 5.212e-7
0.579, 5.268e-7
0.580, 5.327e-7
0.581, 5.383e-7
0.582, 5.440e-7
0.583, 5.506e-7
0.584, 5.565e-7
0.585, 5.633e-7
0.586, 5.696e-7
0.587, 5.765e-7
0.588, 5.837e-7
0.589, 5.893e-7
0.590, 5.968e-7
0.591, 6.049e-7
0.592, 6.126e-7
0.593, 6.207e-7
0.594, 6.286e-7
0.595, 6.371e-7
0.596, 6.457e-7
0.597, 6.541e-7
0.598, 6.635e-7
0.599, 6.722e-7
0.600, 6.820e-7
0.601, 6.918e-7
0.602, 7.015e-7
0.603, 7.118e-7
0.604, 7.217e-7
0.605, 7.324e-7
0.606, 7.438e-7
0.607, 7.558e-7
0.608, 7.680e-7
0.609, 7.794e-7
0.610, 7.912e-7
0.611, 8.040e-7
0.612, 8.166e-7
0.613, 8.296e-7
0.614, 8.431e-7
0.615, 8.571e-7
0.616, 8.713e-7
0.617, 8.852e-7
0.618, 9.002e-7
0.619, 9.145e-7
0.620, 9.303e-7
0.621, 9.464e-7
0.622, 9.621e-7
0.623, 9.792e-7
0.624, 9.953e-7
0.625, 1.013e-6
0.626, 1.031e-6
0.627, 1.049e-6
0.628, 1.068e-6
0.629, 1.087e-6
0.630, 1.107e-6
0.631, 1.127e-6
0.632, 1.147e-6
0.633, 1.168e-6
0.634, 1.189e-6
0.635, 1.211e-6
0.636, 1.234e-6
0.637, 1.257e-6
0.638, 1.281e-6
0.639, 1.305e-6
0.640, 1.330e-6
0.641, 1.356e-6
0.642, 1.381e-6
0.643, 1.408e-6
0.644, 1.434e-6
0.645, 1.462e-6
0.646, 1.491e-6
0.647, 1.520e-6
0.648, 1.551e-6
0.649, 1.582e-6
0.650, 1.612e-6
0.651, 1.644e-6
0.652, 1.676e-6
0.653, 1.710e-6
0.654, 1.744e-6
0.655, 1.778e-6
0.656, 1.814e-6
0.657, 1.851e-6
0.658, 1.888e-6
0.659, 1.925e-6
0.660, 1.963e-6
0.661, 2.002e-6
0.662, 2.043e-6
0.663, 2.084e-6
0.664, 2.126e-6
0.665, 2.170e-6
0.666, 2.214e-6
0.667, 2.259e-6
0.668, 2.305e-6
0.669, 2.353e-6
0.670, 2.401e-6
0.671, 2.451e-6
0.672, 2.501e-6
0.673, 2.552e-6
0.674, 2.604e-6
0.675, 2.657e-6
0.676, 2.711e-6
0.677, 2.766e-6
0.678, 2.823e-6
0.679, 2.881e-6
0.680, 2.940e-6
0.681, 3.001e-6
0.682, 3.062e-6
0.683, 3.127e-6
0.684, 3.191e-6
0.685, 3.256e-6
0.686, 3.323e-6
0.687, 3.391e-6
0.688, 3.460e-6
0.689, 3.529e-6
0.690, 3.600e-6
0.691, 3.675e-6
0.692, 3.750e-6
0.693, 3.827e-6
0.694, 3.906e-6
0.695, 3.986e-6
0.696, 4.067e-6
0.697, 4.150e-6
0.698, 4.234e-6
0.699, 4.320e-6
0.700, 4.407e-6
0.701, 4.497e-6
0.702, 4.588e-6
0.703, 4.681e-6
0.704, 4.777e-6
0.705, 4.874e-6
0.706, 4.971e-6
0.707, 5.070e-6
0.708, 5.171e-6
0.709, 5.274e-6
0.710, 5.379e-6
0.711, 5.488e-6
0.712, 5.598e-6
0.713, 5.710e-6
0.714, 5.823e-6
0.715, 5.937e-6
0.716, 6.056e-6
0.717, 6.176e-6
0.718, 6.301e-6
0.719, 6.425e-6
0.720, 6.551e-6
0.721, 6.678e-6
0.722, 6.807e-6
0.723, 6.940e-6
0.724, 7.076e-6
0.725, 7.214e-6
0.726, 7.354e-6
0.727, 7.495e-6
0.728, 7.639e-6
0.729, 7.787e-6
0.730, 7.937e-6
0.731, 8.090e-6
0.732, 8.243e-6
0.733, 8.399e-6
0.734, 8.558e-6
0.735, 8.721e-6
0.736, 8.886e-6
0.737, 9.053e-6
0.738, 9.223e-6
0.739, 9.396e-6
0.740, 9.572e-6
0.741, 9.750e-6
0.742, 9.929e-6
0.743, 1.011e-5
0.744, 1.030e-5
0.745, 1.049e-5
0.746, 1.068e-5
0.747, 1.088e-5
0.748, 1.108e-5
0.749, 1.128e-5
0.750, 1.148e-5
0.751, 1.169e-5
0.752, 1.190e-5
0.753, 1.211e-5
0.754, 1.233e-5
0.755, 1.255e-5
0.756, 1.277e-5
0.757, 1.299e-5
0.758, 1.322e-5
0.759, 1.345e-5
0.760, 1.369e-5
0.761, 1.392e-5
0.762, 1.417e-5
0.763, 1.441e-5
0.764, 1.465e-5
0.765, 1.490e-5
0.766, 1.516e-5
0.767, 1.542e-5
0.768, 1.568e-5
0.769, 1.594e-5
0.770, 1.621e-5
0.771, 1.648e-5
0.772, 1.675e-5
0.773, 1.703e-5
0.774, 1.731e-5
0.775, 1.759e-5
0.776, 1.788e-5
0.777, 1.817e-5
0.778, 1.846e-5
0.779, 1.876e-5
0.780, 1.906e-5
0.781, 1.936e-5
0.782, 1.967e-5
0.783, 1.998e-5
0.784, 2.029e-5
0.785, 2.061e-5
0.786, 2.093e-5
0.787, 2.126e-5
0.788, 2.159e-5
0.789, 2.192e-5
0.790, 2.225e-5
0.791, 2.259e-5
0.792, 2.293e-5
0.793, 2.327e-5
0.794, 2.362e-5
0.795, 2.397e-5
0.796, 2.433e-5
0.797, 2.469e-5
0.798, 2.505e-5
0.799, 2.542e-5
0.800, 2.567e-5
0.799, 2.542e-5
0.798, 2.498e-5
0.797, 2.453e-5
0.796, 2.409e-5
0.795, 2.366e-5
0.794, 2.324e-5
0.793, 2.282e-5
0.792, 2.242e-5
0.791, 2.202e-5
0.790, 2.162e-5
0.789, 2.124e-5
0.788, 2.086e-5
0.787, 2.049e-5
0.786, 2.012e-5
0.785, 1.975e-5
0.784, 1.940e-5
0.783, 1.905e-5
0.782, 1.870e-5
0.781, 1.836e-5
0.780, 1.803e-5
0.779, 1.770e-5
0.778, 1.738e-5
0.777, 1.706e-5
0.776, 1.674e-5
0.775, 1.643e-5
0.774, 1.613e-5
0.773, 1.583e-5
0.772, 1.554e-5
0.771, 1.525e-5
0.770, 1.496e-5
0.769, 1.468e-5
0.768, 1.441e-5
0.767, 1.414e-5
0.766, 1.387e-5
0.765, 1.361e-5
0.764, 1.335e-5
0.763, 1.309e-5
0.762, 1.284e-5
0.761, 1.260e-5
0.760, 1.235e-5
0.759, 1.212e-5
0.758, 1.188e-5
0.757, 1.165e-5
0.756, 1.142e-5
0.755, 1.120e-5
0.754, 1.098e-5
0.753, 1.077e-5
0.752, 1.056e-5
0.751, 1.035e-5
0.750, 1.014e-5
0.749, 9.941e-6
0.748, 9.746e-6
0.747, 9.552e-6
0.746, 9.359e-6
0.745, 9.171e-6
0.744, 8.988e-6
0.743, 8.806e-6
0.742, 8.627e-6
0.741, 8.451e-6
0.740, 8.279e-6
0.739, 8.113e-6
0.738, 7.946e-6
0.737, 7.782e-6
0.736, 7.622e-6
0.735, 7.465e-6
0.734, 7.311e-6
0.733, 7.160e-6
0.732, 7.010e-6
0.731, 6.863e-6
0.730, 6.719e-6
0.729, 6.581e-6
0.728, 6.443e-6
0.727, 6.306e-6
0.726, 6.171e-6
0.725, 6.040e-6
0.724, 5.912e-6
0.723, 5.786e-6
0.722, 5.663e-6
0.721, 5.541e-6
0.720, 5.420e-6
0.719, 5.304e-6
0.718, 5.189e-6
0.717, 5.077e-6
0.716, 4.966e-6
0.715, 4.858e-6
0.714, 4.751e-6
0.713, 4.645e-6
0.712, 4.543e-6
0.711, 4.443e-6
0.710, 4.344e-6
0.709, 4.248e-6
0.708, 4.153e-6
0.707, 4.061e-6
0.706, 3.969e-6
0.705, 3.879e-6
0.704, 3.791e-6
0.703, 3.704e-6
0.702, 3.621e-6
0.701, 3.538e-6
0.700, 3.459e-6
0.699, 3.380e-6
0.698, 3.302e-6
0.697, 3.226e-6
0.696, 3.151e-6
0.695, 3.076e-6
0.694, 3.004e-6
0.693, 2.933e-6
0.692, 2.865e-6
0.691, 2.796e-6
0.690, 2.730e-6
0.689, 2.666e-6
0.688, 2.602e-6
0.687, 2.540e-6
0.686, 2.479e-6
0.685, 2.419e-6
0.684, 2.360e-6
0.683, 2.301e-6
0.682, 2.245e-6
0.681, 2.190e-6
0.680, 2.136e-6
0.679, 2.083e-6
0.678, 2.031e-6
0.677, 1.980e-6
0.676, 1.932e-6
0.675, 1.884e-6
0.674, 1.837e-6
0.673, 1.790e-6
0.672, 1.744e-6
0.671, 1.699e-6
0.670, 1.656e-6
0.669, 1.613e-6
0.668, 1.571e-6
0.667, 1.529e-6
0.666, 1.488e-6
0.665, 1.448e-6
0.664, 1.410e-6
0.663, 1.372e-6
0.662, 1.336e-6
0.661, 1.299e-6
0.660, 1.264e-6
0.659, 1.230e-6
0.658, 1.196e-6
0.657, 1.163e-6
0.656, 1.131e-6
0.655, 1.099e-6
0.654, 1.069e-6
0.653, 1.038e-6
0.652, 1.009e-6
0.651, 9.800e-7
0.650, 9.514e-7
0.649, 9.239e-7
0.648, 8.967e-7
0.647, 8.700e-7
0.646, 8.444e-7
0.645, 8.190e-7
0.644, 7.945e-7
0.643, 7.701e-7
0.642, 7.454e-7
0.641, 7.218e-7
0.640, 6.987e-7
0.639, 6.770e-7
0.638, 6.553e-7
0.637, 6.339e-7
0.636, 6.132e-7
0.635, 5.935e-7
0.634, 5.740e-7
0.633, 5.545e-7
0.632, 5.362e-7
0.631, 5.173e-7
0.630, 4.994e-7
0.629, 4.821e-7
0.628, 4.648e-7
0.627, 4.482e-7
0.626, 4.318e-7
0.625, 4.160e-7
0.624, 4.006e-7
0.623, 3.842e-7
0.622, 3.706e-7
0.621, 3.574e-7
0.620, 3.442e-7
0.619, 3.309e-7
0.618, 3.170e-7
0.617, 3.038e-7
0.616, 2.909e-7
0.615, 2.783e-7
0.614, 2.659e-7
0.613, 2.540e-7
0.612, 2.425e-7
0.611, 2.309e-7
0.610, 2.197e-7
0.609, 2.093e-7
0.608, 1.983e-7
0.607, 1.883e-7
0.606, 1.782e-7
0.605, 1.683e-7
0.604, 1.588e-7
0.603, 1.494e-7
0.602, 1.404e-7
0.601, 1.311e-7
0.600, 1.224e-7
0.599, 1.141e-7
0.598, 1.060e-7
0.597, 9.779e-8
0.596, 8.939e-8
0.595, 8.192e-8
0.594, 7.459e-8
0.593, 6.720e-8
0.592, 6.020e-8
0.591, 5.292e-8
0.590, 4.643e-8
0.589, 3.962e-8
0.588, 3.269e-8
0.587, 2.689e-8
0.586, 2.073e-8
0.585, 1.451e-8
0.584, 8.810e-9
0.583, 2.697e-9
0.582, -2.333e-9
0.581, -8.102e-9
0.580, -1.384e-8
0.579, -1.820e-8
0.578, -2.386e-8
0.577, -2.870e-8
0.576, -3.386e-8
0.575, -3.933e-8
0.574, -4.387e-8
0.573, -4.884e-8
0.572, -5.346e-8
0.571, -5.764e-8
0.570, -6.245e-8
0.569, -6.614e-8
0.568, -7.085e-8
0.567, -7.446e-8
0.566, -7.826e-8
0.565, -8.213e-8
0.564, -8.556e-8
0.563, -8.950e-8
0.562, -9.266e-8
0.561, -9.599e-8
0.560, -9.938e-8
0.559, -1.022e-7
0.558, -1.053e-7
0.557, -1.084e-7
0.556, -1.116e-7
0.555, -1.144e-7
0.554, -1.172e-7
0.553, -1.199e-7
0.552, -1.224e-7
0.551, -1.252e-7
0.550, -1.280e-7
0.549, -1.302e-7
0.548, -1.328e-7
0.547, -1.352e-7
0.546, -1.379e-7
0.545, -1.402e-7
0.544, -1.421e-7
0.543, -1.447e-7
0.542, -1.465e-7
0.541, -1.486e-7
0.540, -1.508e-7
0.539, -1.528e-7
0.538, -1.550e-7
0.537, -1.570e-7
0.536, -1.586e-7
0.535, -1.607e-7
0.534, -1.620e-7
0.533, -1.640e-7
0.532, -1.657e-7
0.531, -1.677e-7
0.530, -1.696e-7
0.529, -1.706e-7
0.528, -1.724e-7
0.527, -1.740e-7
0.526, -1.759e-7
0.525, -1.773e-7
0.524, -1.784e-7
0.523, -1.798e-7
0.522, -1.813e-7
0.521, -1.825e-7
0.520, -1.839e-7
0.519, -1.854e-7
0.518, -1.866e-7
0.517, -1.879e-7
0.516, -1.892e-7
0.515, -1.905e-7
0.514, -1.914e-7
0.513, -1.928e-7
0.512, -1.945e-7
0.511, -1.957e-7
0.510, -1.966e-7
0.509, -1.973e-7
0.508, -1.989e-7
0.507, -1.994e-7
0.506, -2.006e-7
0.505, -2.017e-7
0.504, -2.025e-7
0.503, -2.034e-7
0.502, -2.043e-7
0.501, -2.056e-7
0.500, -2.067e-7
0.499, -2.072e-7
0.498, -2.085e-7
0.497, -2.090e-7
0.496, -2.104e-7
0.495, -2.113e-7
0.494, -2.118e-7
0.493, -2.128e-7
0.492, -2.134e-7
0.491, -2.143e-7
0.490, -2.153e-7
0.489, -2.159e-7
0.488, -2.167e-7
0.487, -2.174e-7
0.486, -2.189e-7
0.485, -2.195e-7
0.484, -2.195e-7
0.483, -2.206e-7
0.482, -2.212e-7
0.481, -2.222e-7
0.480, -2.230e-7
0.479, -2.234e-7
0.478, -2.240e-7
0.477, -2.248e-7
0.476, -2.256e-7
0.475, -2.263e-7
0.474, -2.268e-7
0.473, -2.276e-7
0.472, -2.281e-7
0.471, -2.286e-7
0.470, -2.288e-7
0.469, -2.294e-7
0.468, -2.305e-7
0.467, -2.309e-7
0.466, -2.319e-7
0.465, -2.326e-7
0.464, -2.329e-7
0.463, -2.339e-7
0.462, -2.342e-7
0.461, -2.354e-7
0.460, -2.360e-7
0.459, -2.361e-7
0.458, -2.371e-7
0.457, -2.371e-7
0.456, -2.382e-7
0.455, -2.387e-7
0.454, -2.388e-7
0.453, -2.396e-7
0.452, -2.403e-7
0.451, -2.407e-7
0.450, -2.412e-7
0.449, -2.415e-7
0.448, -2.422e-7
0.447, -2.431e-7
0.446, -2.433e-7
0.445, -2.438e-7
0.444, -2.441e-7
0.443, -2.448e-7
0.442, -2.455e-7
0.441, -2.459e-7
0.440, -2.463e-7
0.439, -2.467e-7
0.438, -2.475e-7
0.437, -2.475e-7
0.436, -2.482e-7
0.435, -2.490e-7
0.434, -2.492e-7
0.433, -2.496e-7
0.432, -2.503e-7
0.431, -2.510e-7
0.430, -2.513e-7
0.429, -2.515e-7
0.428, -2.524e-7
0.427, -2.527e-7
0.426, -2.532e-7
0.425, -2.530e-7
0.424, -2.531e-7
0.423, -2.541e-7
0.422, -2.546e-7
0.421, -2.551e-7
0.420, -2.557e-7
0.419, -2.560e-7
0.418, -2.566e-7
0.417, -2.571e-7
0.416, -2.578e-7
0.415, -2.582e-7
0.414, -2.583e-7
0.413, -2.592e-7
0.412, -2.581e-7
0.411, -2.573e-7
0.410, -2.591e-7
0.409, -2.603e-7
0.408, -2.608e-7
0.407, -2.611e-7
0.406, -2.617e-7
0.405, -2.624e-7
0.404, -2.628e-7
0.403, -2.634e-7
0.402, -2.638e-7
0.401, -2.642e-7
0.400, -2.650e-7
0.399, -2.654e-7
0.398, -2.655e-7
0.397, -2.661e-7
0.396, -2.670e-7
0.395, -2.672e-7
0.394, -2.675e-7
0.393, -2.679e-7
0.392, -2.682e-7
0.391, -2.688e-7
0.390, -2.692e-7
0.389, -2.693e-7
0.388, -2.702e-7
0.387, -2.702e-7
0.386, -2.710e-7
0.385, -2.712e-7
0.384, -2.719e-7
0.383, -2.724e-7
0.382, -2.723e-7
0.381, -2.732e-7
0.380, -2.737e-7
0.379, -2.736e-7
0.378, -2.744e-7
0.377, -2.746e-7
0.376, -2.751e-7
0.375, -2.757e-7
0.374, -2.757e-7
0.373, -2.763e-7
0.372, -2.767e-7
0.371, -2.769e-7
0.370, -2.775e-7
0.369, -2.778e-7
0.368, -2.784e-7
0.367, -2.787e-7
0.366, -2.789e-7
0.365, -2.797e-7
0.364, -2.800e-7
0.363, -2.805e-7
0.362, -2.810e-7
0.361, -2.814e-7
0.360, -2.815e-7
0.359, -2.820e-7
0.358, -2.830e-7
0.357, -2.829e-7
0.356, -2.838e-7
0.355, -2.837e-7
0.354, -2.841e-7
0.353, -2.847e-7
0.352, -2.851e-7
0.351, -2.854e-7
0.350, -2.861e-7
0.349, -2.870e-7
0.348, -2.871e-7
0.347, -2.872e-7
0.346, -2.875e-7
0.345, -2.878e-7
0.344, -2.883e-7
0.343, -2.889e-7
0.342, -2.889e-7
0.341, -2.895e-7
0.340, -2.900e-7
0.339, -2.903e-7
0.338, -2.909e-7
0.337, -2.912e-7
0.336, -2.915e-7
0.335, -2.921e-7
0.334, -2.922e-7
0.333, -2.929e-7
0.332, -2.936e-7
0.331, -2.936e-7
0.330, -2.943e-7
0.329, -2.945e-7
0.328, -2.947e-7
0.327, -2.952e-7
0.326, -2.955e-7
0.325, -2.962e-7
0.324, -2.964e-7
0.323, -2.966e-7
0.322, -2.975e-7
0.321, -2.983e-7
0.320, -2.986e-7
0.319, -2.987e-7
0.318, -2.991e-7
0.317, -2.994e-7
0.316, -2.998e-7
0.315, -3.004e-7
0.314, -3.004e-7
0.313, -3.011e-7
0.312, -3.012e-7
0.311, -3.019e-7
0.310, -3.021e-7
0.309, -3.023e-7
0.308, -3.032e-7
0.307, -3.043e-7
0.306, -3.045e-7
0.305, -3.047e-7
0.304, -3.047e-7
0.303, -3.053e-7
0.302, -3.053e-7
0.301, -3.062e-7
0.300, -3.067e-7
0.299, -3.066e-7
0.298, -3.072e-7
0.297, -3.081e-7
0.296, -3.084e-7
0.295, -3.087e-7
0.294, -3.092e-7
0.293, -3.096e-7
0.292, -3.103e-7
0.291, -3.102e-7
0.290, -3.111e-7
0.289, -3.111e-7
0.288, -3.116e-7
0.287, -3.122e-7
0.286, -3.126e-7
0.285, -3.133e-7
0.284, -3.134e-7
0.283, -3.139e-7
0.282, -3.145e-7
0.281, -3.151e-7
0.280, -3.154e-7
0.279, -3.158e-7
0.278, -3.161e-7
0.277, -3.168e-7
0.276, -3.171e-7
0.275, -3.178e-7
0.274, -3.182e-7
0.273, -3.183e-7
0.272, -3.188e-7
0.271, -3.193e-7
0.270, -3.196e-7
0.269, -3.204e-7
0.268, -3.209e-7
0.267, -3.213e-7
0.266, -3.218e-7
0.265, -3.222e-7
0.264, -3.226e-7
0.263, -3.234e-7
0.262, -3.235e-7
0.261, -3.241e-7
0.260, -3.247e-7
0.259, -3.248e-7
0.258, -3.256e-7
0.257, -3.261e-7
0.256, -3.265e-7
0.255, -3.274e-7
0.254, -3.271e-7
0.253, -3.279e-7
0.252, -3.283e-7
0.251, -3.284e-7
0.250, -3.293e-7
0.249, -3.296e-7
0.248, -3.302e-7
0.247, -3.309e-7
0.246, -3.313e-7
0.245, -3.318e-7
0.244, -3.324e-7
0.243, -3.331e-7
0.242, -3.335e-7
0.241, -3.337e-7
0.240, -3.345e-7
0.239, -3.349e-7
0.238, -3.356e-7
0.237, -3.362e-7
0.236, -3.365e-7
0.235, -3.371e-7
0.234, -3.375e-7
0.233, -3.381e-7
0.232, -3.386e-7
0.231, -3.395e-7
0.230, -3.403e-7
0.229, -3.402e-7
0.228, -3.412e-7
0.227, -3.412e-7
0.226, -3.418e-7
0.225, -3.425e-7
0.224, -3.430e-7
0.223, -3.437e-7
0.222, -3.441e-7
0.221, -3.448e-7
0.220, -3.454e-7
0.219, -3.455e-7
0.218, -3.463e-7
0.217, -3.472e-7
0.216, -3.474e-7
0.215, -3.482e-7
0.214, -3.485e-7
0.213, -3.494e-7
0.212, -3.498e-7
0.211, -3.500e-7
0.210, -3.508e-7
0.209, -3.512e-7
0.208, -3.520e-7
0.207, -3.528e-7
0.206, -3.529e-7
0.205, -3.542e-7
0.204, -3.549e-7
0.203, -3.550e-7
0.202, -3.558e-7
0.201, -3.563e-7
0.200, -3.568e-7
0.199, -3.576e-7
0.198, -3.580e-7
0.197, -3.586e-7
0.196, -3.595e-7
0.195, -3.596e-7
0.194, -3.605e-7
0.193, -3.610e-7
0.192, -3.618e-7
0.191, -3.626e-7
0.190, -3.629e-7
0.189, -3.637e-7
0.188, -3.646e-7
0.187, -3.648e-7
0.186, -3.655e-7
0.185, -3.663e-7
0.184, -3.668e-7
0.183, -3.676e-7
0.182, -3.681e-7
0.181, -3.686e-7
0.180, -3.700e-7
0.179, -3.706e-7
0.178, -3.712e-7
0.177, -3.719e-7
0.176, -3.722e-7
0.175, -3.733e-7
0.174, -3.735e-7
0.173, -3.743e-7
0.172, -3.751e-7
0.171, -3.758e-7
0.170, -3.766e-7
0.169, -3.769e-7
0.168, -3.779e-7
0.167, -3.786e-7
0.166, -3.790e-7
0.165, -3.799e-7
0.164, -3.806e-7
0.163, -3.812e-7
0.162, -3.823e-7
0.161, -3.826e-7
0.160, -3.835e-7
0.159, -3.841e-7
0.158, -3.851e-7
0.157, -3.857e-7
0.156, -3.861e-7
0.155, -3.874e-7
0.154, -3.880e-7
0.153, -3.889e-7
0.152, -3.896e-7
0.151, -3.904e-7
0.150, -3.911e-7
0.149, -3.917e-7
0.148, -3.928e-7
0.147, -3.934e-7
0.146, -3.942e-7
0.145, -3.953e-7
0.144, -3.958e-7
0.143, -3.968e-7
0.142, -3.976e-7
0.141, -3.983e-7
0.140, -3.992e-7
0.139, -3.994e-7
0.138, -4.007e-7
0.137, -4.013e-7
0.136, -4.018e-7
0.135, -4.032e-7
0.134, -4.035e-7
0.133, -4.047e-7
0.132, -4.056e-7
0.131, -4.058e-7
0.130, -4.072e-7
0.129, -4.077e-7
0.128, -4.091e-7
0.127, -4.102e-7
0.126, -4.104e-7
0.125, -4.115e-7
0.124, -4.125e-7
0.123, -4.133e-7
0.122, -4.141e-7
0.121, -4.148e-7
0.120, -4.157e-7
0.119, -4.166e-7
0.118, -4.174e-7
0.117, -4.183e-7
0.116, -4.191e-7
0.115, -4.201e-7
0.114, -4.211e-7
0.113, -4.220e-7
0.112, -4.231e-7
0.111, -4.237e-7
0.110, -4.244e-7
0.109, -4.257e-7
0.108, -4.266e-7
0.107, -4.274e-7
0.106, -4.281e-7
0.105, -4.292e-7
0.104, -4.302e-7
0.103, -4.313e-7
0.102, -4.330e-7
0.101, -4.333e-7
0.100, -4.344e-7
0.099, -4.349e-7
0.098, -4.360e-7
0.097, -4.369e-7
0.096, -4.379e-7
0.095, -4.392e-7
0.094, -4.398e-7
0.093, -4.408e-7
0.092, -4.421e-7
0.091, -4.423e-7
0.090, -4.442e-7
0.089, -4.448e-7
0.088, -4.458e-7
0.087, -4.471e-7
0.086, -4.477e-7
0.085, -4.491e-7
0.084, -4.501e-7
0.083, -4.510e-7
0.082, -4.526e-7
0.081, -4.532e-7
0.080, -4.546e-7
0.079, -4.558e-7
0.078, -4.566e-7
0.077, -4.584e-7
0.076, -4.594e-7
0.075, -4.604e-7
0.074, -4.614e-7
0.073, -4.626e-7
0.072, -4.640e-7
0.071, -4.645e-7
0.070, -4.657e-7
0.069, -4.671e-7
0.068, -4.685e-7
0.067, -4.691e-7
0.066, -4.701e-7
0.065, -4.716e-7
0.064, -4.726e-7
0.063, -4.741e-7
0.062, -4.754e-7
0.061, -4.762e-7
0.060, -4.775e-7
0.059, -4.785e-7
0.058, -4.799e-7
0.057, -4.814e-7
0.056, -4.821e-7
0.055, -4.839e-7
0.054, -4.848e-7
0.053, -4.864e-7
0.052, -4.878e-7
0.051, -4.890e-7
0.050, -4.905e-7
0.049, -4.916e-7
0.048, -4.924e-7
0.047, -4.942e-7
0.046, -4.948e-7
0.045, -4.962e-7
0.044, -4.974e-7
0.043, -4.988e-7
0.042, -5.003e-7
0.041, -5.010e-7
0.040, -5.027e-7
0.039, -5.040e-7
0.038, -5.055e-7
0.037, -5.070e-7
0.036, -5.079e-7
0.035, -5.094e-7
0.034, -5.109e-7
0.033, -5.124e-7
0.032, -5.137e-7
0.031, -5.150e-7
0.030, -5.165e-7
0.029, -5.177e-7
0.028, -5.191e-7
0.027, -5.209e-7
0.026, -5.224e-7
0.025, -5.242e-7
0.024, -5.253e-7
0.023, -5.266e-7
0.022, -5.280e-7
0.021, -5.290e-7
0.020, -5.316e-7
0.019, -5.324e-7
0.018, -5.341e-7
0.017, -5.353e-7
0.016, -5.363e-7
0.015, -5.383e-7
0.014, -5.394e-7
0.013, -5.413e-7
0.012, -5.428e-7
0.011, -5.444e-7
0.010, -5.460e-7
0.009, -5.474e-7
0.008, -5.488e-7
0.007, -5.505e-7
0.006, -5.515e-7
0.005, -5.534e-7
0.004, -5.547e-7
0.003, -5.561e-7
0.002, -5.581e-7
0.001, -5.593e-7
